#Parameters = {d=1; g=0.5; h=2.4; l=6; m=3; p=0.5; phi=0; s=1.3; t=0.035; theta=0; w=7}
#"Frequency / GHz"	"SZmax(1),Zmax(2) [Magnitude]"
#------------------------------------------------
2.0000000000000	0.0038947795115430
2.0100000000000	0.0039624337171858
2.0200000000000	0.0040310254202543
2.0300000000000	0.0041005655346054
2.0400000000000	0.0041710651125708
2.0500000000000	0.0042425353470168
2.0600000000000	0.0043149875734321
2.0700000000000	0.0043884332720597
2.0800000000000	0.0044628840700600
2.0900000000000	0.0045383517437122
2.1000000000000	0.0046148482206523
2.1100000000000	0.0046923855821542
2.1200000000000	0.0047709760654434
2.1300000000000	0.0048506320660549
2.1400000000000	0.0049313661402301
2.1500000000000	0.0050131910073610
2.1600000000000	0.0050961195524625
2.1700000000000	0.0051801648287149
2.1800000000000	0.0052653400600089
2.1900000000000	0.0053516586435836
2.2000000000000	0.0054391341526688
2.2100000000000	0.0055277803392034
2.2200000000000	0.0056176111365844
2.2300000000000	0.0057086406624711
2.2400000000000	0.0058008832216376
2.2500000000000	0.0058943533088856
2.2600000000000	0.0059890656119824
2.2700000000000	0.0060850350146786
2.2800000000000	0.0061822765997735
2.2900000000000	0.0062808056522232
2.3000000000000	0.0063806376623198
2.3100000000000	0.0064817883289156
2.3200000000000	0.0065842735627186
2.3300000000000	0.0066881094896216
2.3400000000000	0.0067933124541383
2.3500000000000	0.0068998990228477
2.3600000000000	0.0070078859879418
2.3700000000000	0.0071172903708133
2.3800000000000	0.0072281294257225
2.3900000000000	0.0073404206435308
2.4000000000000	0.0074541817554978
2.4100000000000	0.0075694307371455
2.4200000000000	0.0076861858122006
2.4300000000000	0.0078044654566105
2.4400000000000	0.0079242884026362
2.4500000000000	0.0080456736429917
2.4600000000000	0.0081686404351191
2.4700000000000	0.0082932083054741
2.4800000000000	0.0084193970539639
2.4900000000000	0.0085472267583866
2.5000000000000	0.0086767177790530
2.5100000000000	0.0088078907633858
2.5200000000000	0.0089407666507095
2.5300000000000	0.0090753666770464
2.5400000000000	0.0092117123800629
2.5500000000000	0.0093498256040765
2.5600000000000	0.0094897285051771
2.5700000000000	0.0096314435564323
2.5800000000000	0.0097749935532018
2.5900000000000	0.0099204016185466
2.6000000000000	0.010067691208762
2.6100000000000	0.010216886118985
2.6200000000000	0.010368010488933
2.6300000000000	0.010521088808754
2.6400000000000	0.010676145924987
2.6500000000000	0.010833207046625
2.6600000000000	0.010992297751329
2.6700000000000	0.011153443991726
2.6800000000000	0.011316672101861
2.6900000000000	0.011482008803762
2.7000000000000	0.011649481214132
2.7100000000000	0.011819116851188
2.7200000000000	0.011990943641623
2.7300000000000	0.012164989927707
2.7400000000000	0.012341284474538
2.7500000000000	0.012519856477442
2.7600000000000	0.012700735569497
2.7700000000000	0.012883951829235
2.7800000000000	0.013069535788498
2.7900000000000	0.013257518440423
2.8000000000000	0.013447931247636
2.8100000000000	0.013640806150566
2.8200000000000	0.013836175575965
2.8300000000000	0.014034072445585
2.8400000000000	0.014234530185028
2.8500000000000	0.014437582732796
2.8600000000000	0.014643264549510
2.8700000000000	0.014851610627328
2.8800000000000	0.015062656499559
2.8900000000000	0.015276438250479
2.9000000000000	0.015492992525336
2.9100000000000	0.015712356540584
2.9200000000000	0.015934568094323
2.9300000000000	0.016159665576954
2.9400000000000	0.016387687982065
2.9500000000000	0.016618674917547
2.9600000000000	0.016852666616935
2.9700000000000	0.017089703951004
2.9800000000000	0.017329828439608
2.9900000000000	0.017573082263760
3.0000000000000	0.017819508277988
3.0100000000000	0.018069150022946
3.0200000000000	0.018322051738293
3.0300000000000	0.018578258375863
3.0400000000000	0.018837815613107
3.0500000000000	0.019100769866833
3.0600000000000	0.019367168307244
3.0700000000000	0.019637058872282
3.0800000000000	0.019910490282286
3.0900000000000	0.020187512054966
3.1000000000000	0.020468174520720
3.1100000000000	0.020752528838273
3.1200000000000	0.021040627010669
3.1300000000000	0.021332521901624
3.1400000000000	0.021628267252227
3.1500000000000	0.021927917698028
3.1600000000000	0.022231528786499
3.1700000000000	0.022539156994892
3.1800000000000	0.022850859748494
3.1900000000000	0.023166695439295
3.2000000000000	0.023486723445079
3.2100000000000	0.023811004148944
3.2200000000000	0.024139598959274
3.2300000000000	0.024472570330152
3.2400000000000	0.024809981782255
3.2500000000000	0.025151897924212
3.2600000000000	0.025498384474469
3.2700000000000	0.025849508283644
3.2800000000000	0.026205337357402
3.2900000000000	0.026565940879866
3.3000000000000	0.026931389237564
3.3100000000000	0.027301754043935
3.3200000000000	0.027677108164410
3.3300000000000	0.028057525742079
3.3400000000000	0.028443082223958
3.3500000000000	0.028833854387876
3.3600000000000	0.029229920369999
3.3700000000000	0.029631359692999
3.3800000000000	0.030038253294899
3.3900000000000	0.030450683558597
3.4000000000000	0.030868734342097
3.4100000000000	0.031292491009467
3.4200000000000	0.031722040462532
3.4300000000000	0.032157471173333
3.4400000000000	0.032598873217368
3.4500000000000	0.033046338307637
3.4600000000000	0.033499959829510
3.4700000000000	0.033959832876444
3.4800000000000	0.034426054286567
3.4900000000000	0.034898722680158
3.5000000000000	0.035377938498045
3.5100000000000	0.035863804040942
3.5200000000000	0.036356423509760
3.5300000000000	0.036855903046902
3.5400000000000	0.037362350778589
3.5500000000000	0.037875876858232
3.5600000000000	0.038396593510879
3.5700000000000	0.038924615078777
3.5800000000000	0.039460058068056
3.5900000000000	0.040003041196605
3.6000000000000	0.040553685443128
3.6100000000000	0.041112114097439
3.6200000000000	0.041678452812038
3.6300000000000	0.042252829654970
3.6400000000000	0.042835375164040
3.6500000000000	0.043426222402390
3.6600000000000	0.044025507015503
3.6700000000000	0.044633367289648
3.6800000000000	0.045249944211827
3.6900000000000	0.045875381531251
3.7000000000000	0.046509825822400
3.7100000000000	0.047153426549697
3.7200000000000	0.047806336133851
3.7300000000000	0.048468710019915
3.7400000000000	0.049140706747099
3.7500000000000	0.049822488020394
3.7600000000000	0.050514218784060
3.7700000000000	0.051216067297019
3.7800000000000	0.051928205210209
3.7900000000000	0.052650807645968
3.8000000000000	0.053384053279485
3.8100000000000	0.054128124422378
3.8200000000000	0.054883207108474
3.8300000000000	0.055649491181838
3.8400000000000	0.056427170387109
3.8500000000000	0.057216442462223
3.8600000000000	0.058017509233575
3.8700000000000	0.058830576713692
3.8800000000000	0.059655855201490
3.8900000000000	0.060493559385174
3.9000000000000	0.061343908447870
3.9100000000000	0.062207126176047
3.9200000000000	0.063083441070814
3.9300000000000	0.063973086462175
3.9400000000000	0.064876300626300
3.9500000000000	0.065793326905924
3.9600000000000	0.066724413833934
3.9700000000000	0.067669815260233
3.9800000000000	0.068629790481978
3.9900000000000	0.069604604377267
4.0000000000000	0.070594527542387
4.0100000000000	0.071599836432675
4.0200000000000	0.072620813507135
4.0300000000000	0.073657747376873
4.0400000000000	0.074710932957456
4.0500000000000	0.075780671625295
4.0600000000000	0.076867271378151
4.0700000000000	0.077971046999869
4.0800000000000	0.079092320229434
4.0900000000000	0.080231419934462
4.1000000000000	0.081388682289220
4.1100000000000	0.082564450957299
4.1200000000000	0.083759077279016
4.1300000000000	0.084972920463685
4.1400000000000	0.086206347786837
4.1500000000000	0.087459734792511
4.1600000000000	0.088733465500719
4.1700000000000	0.090027932620176
4.1800000000000	0.091343537766422
4.1900000000000	0.092680691685429
4.2000000000000	0.094039814482777
4.2100000000000	0.095421335858529
4.2200000000000	0.096825695347869
4.2300000000000	0.098253342567617
4.2400000000000	0.099704737468689
4.2500000000000	0.10118035059460
4.2600000000000	0.10268066334608
4.2700000000000	0.10420616825186
4.2800000000000	0.10575736924569
4.2900000000000	0.10733478194968
4.3000000000000	0.10893893396396
4.3100000000000	0.11057036516269
4.3200000000000	0.11222962799644
4.3300000000000	0.11391728780100
4.3400000000000	0.11563392311251
4.3500000000000	0.11738012598894
4.3600000000000	0.11915650233786
4.3700000000000	0.12096367225040
4.3800000000000	0.12280227034133
4.3900000000000	0.12467294609510
4.4000000000000	0.12657636421768
4.4100000000000	0.12851320499410
4.4200000000000	0.13048416465126
4.4300000000000	0.13248995572599
4.4400000000000	0.13453130743777
4.4500000000000	0.13660896606599
4.4600000000000	0.13872369533119
4.4700000000000	0.14087627677979
4.4800000000000	0.14306751017182
4.4900000000000	0.14529821387102
4.5000000000000	0.14756922523652
4.5100000000000	0.14988140101551
4.5200000000000	0.15223561773573
4.5300000000000	0.15463277209709
4.5400000000000	0.15707378136112
4.5500000000000	0.15955958373713
4.5600000000000	0.16209113876364
4.5700000000000	0.16466942768370
4.5800000000000	0.16729545381233
4.5900000000000	0.16997024289433
4.6000000000000	0.17269484345037
4.6100000000000	0.17547032710925
4.6200000000000	0.17829778892376
4.6300000000000	0.18117834766760
4.6400000000000	0.18411314611029
4.6500000000000	0.18710335126702
4.6600000000000	0.19015015461977
4.6700000000000	0.19325477230601
4.6800000000000	0.19641844527068
4.6900000000000	0.19964243937692
4.7000000000000	0.20292804547069
4.7100000000000	0.20627657939367
4.7200000000000	0.20968938193879
4.7300000000000	0.21316781874183
4.7400000000000	0.21671328010230
4.7500000000000	0.22032718072602
4.7600000000000	0.22401095938139
4.7700000000000	0.22776607846046
4.7800000000000	0.23159402343550
4.7900000000000	0.23549630220063
4.8000000000000	0.23947444428780
4.8100000000000	0.24352999994505
4.8200000000000	0.24766453906442
4.8300000000000	0.25187964994597
4.8400000000000	0.25617693788312
4.8500000000000	0.26055802355388
4.8600000000000	0.26502454120111
4.8700000000000	0.26957813658419
4.8800000000000	0.27422046468309
4.8900000000000	0.27895318713479
4.9000000000000	0.28377796938087
4.9100000000000	0.28869647750374
4.9200000000000	0.29371037472788
4.9300000000000	0.29882131756134
4.9400000000000	0.30403095155140
4.9500000000000	0.30934090662741
4.9600000000000	0.31475279200252
4.9700000000000	0.32026819060542
4.9800000000000	0.32588865301195
4.9900000000000	0.33161569084618
5.0000000000000	0.33745076961989
5.0100000000000	0.34339530097916
5.0200000000000	0.34945063432698
5.0300000000000	0.35561804779120
5.0400000000000	0.36189873850799
5.0500000000000	0.36829381219230
5.0600000000000	0.37480427196894
5.0700000000000	0.38143100644033
5.0800000000000	0.38817477697037
5.0900000000000	0.39503620416820
5.1000000000000	0.40201575356073
5.1100000000000	0.40911372044904
5.1200000000000	0.41633021395121
5.1300000000000	0.42366514024301
5.1400000000000	0.43111818501774
5.1500000000000	0.43868879519842
5.1600000000000	0.44637615994867
5.1700000000000	0.45417919104347
5.1800000000000	0.46209650267794
5.1900000000000	0.47012639081043
5.2000000000000	0.47826681215666
5.2100000000000	0.48651536297348
5.2200000000000	0.49486925779445
5.2300000000000	0.50332530830442
5.2400000000000	0.51187990256660
5.2500000000000	0.52052898484246
5.2600000000000	0.52926803627285
5.2700000000000	0.53809205671564
5.2800000000000	0.54699554806255
5.2900000000000	0.55597249938291
5.3000000000000	0.56501637426530
5.3100000000000	0.57412010074790
5.3200000000000	0.58327606424392
5.3300000000000	0.59247610387861
5.3400000000000	0.60171151265779
5.3500000000000	0.61097304188358
5.3600000000000	0.62025091021949
5.3700000000000	0.62953481778351
5.3800000000000	0.63881396561321
5.3900000000000	0.64807708080000
5.4000000000000	0.65731244753087
5.4100000000000	0.66650794420377
5.4200000000000	0.67565108669894
5.4300000000000	0.68472907779203
5.4400000000000	0.69372886258854
5.4500000000000	0.70263718974342
5.4600000000000	0.71144067810754
5.4700000000000	0.72012588831693
5.4800000000000	0.72867939871414
5.4900000000000	0.73708788486816
5.5000000000000	0.74533820184313
5.5100000000000	0.75341746826161
5.5200000000000	0.76131315111904
5.5300000000000	0.76901315023611
5.5400000000000	0.77650588118874
5.5500000000000	0.78378035553408
5.5600000000000	0.79082625715714
5.5700000000000	0.79763401359790
5.5800000000000	0.80419486128292
5.5900000000000	0.81050090367736
5.6000000000000	0.81654516149144
5.6100000000000	0.82232161421556
5.6200000000000	0.82782523241783
5.6300000000000	0.83305200041050
5.6400000000000	0.83799892907339
5.6500000000000	0.84266405880668
5.6600000000000	0.84704645276728
5.6700000000000	0.85114618071614
5.6800000000000	0.85496429396451
5.6900000000000	0.85850279204998
5.7000000000000	0.86176458189534
5.7100000000000	0.86475343030200
5.7200000000000	0.86747391070376
5.7300000000000	0.86993134515481
5.7400000000000	0.87213174254973
5.7500000000000	0.87408173407211
5.7600000000000	0.87578850684668
5.7700000000000	0.87725973672754
5.7800000000000	0.87850352109702
5.7900000000000	0.87952831247812
5.8000000000000	0.88034285368160
5.8100000000000	0.88095611512029
5.8200000000000	0.88137723483092
5.8300000000000	0.88161546164989
5.8400000000000	0.88168010189788
5.8500000000000	0.88158046983902
5.8600000000000	0.88132584209764
5.8700000000000	0.88092541613804
5.8800000000000	0.88038827284405
5.8900000000000	0.87972334317307
5.9000000000000	0.87893937880672
5.9100000000000	0.87804492667503
5.9200000000000	0.87704830719460
5.9300000000000	0.87595759603194
5.9400000000000	0.87478060918131
5.9500000000000	0.87352489113086
5.9600000000000	0.87219770588126
5.9700000000000	0.87080603057653
5.9800000000000	0.86935655150641
5.9900000000000	0.86785566224331
6.0000000000000	0.86630946368337
6.0100000000000	0.86472376577012
6.0200000000000	0.86310409068994
6.0300000000000	0.86145567734095
6.0400000000000	0.85978348688973
6.0500000000000	0.85809220924428
6.0600000000000	0.85638627028511
6.0700000000000	0.85466983971059
6.0800000000000	0.85294683936580
6.0900000000000	0.85122095193776
6.1000000000000	0.84949562991199
6.1100000000000	0.84777410469763
6.1200000000000	0.84605939583949
6.1300000000000	0.84435432024545
6.1400000000000	0.84266150136797
6.1500000000000	0.84098337828642
6.1600000000000	0.83932221464595
6.1700000000000	0.83768010741504
6.1800000000000	0.83605899543113
6.1900000000000	0.83446066770931
6.2000000000000	0.83288677149424
6.2100000000000	0.83133882004034
6.2200000000000	0.82981820010921
6.2300000000000	0.82832617917681
6.2400000000000	0.82686391234615
6.2500000000000	0.82543244896372
6.2600000000000	0.82403273894037
6.2700000000000	0.82266563877909
6.2800000000000	0.82133191731399
6.2900000000000	0.82003226116582
6.3000000000000	0.81876727992077
6.3100000000000	0.81753751103995
6.3200000000000	0.81634342450783
6.3300000000000	0.81518542722817
6.3400000000000	0.81406386717665
6.3500000000000	0.81297903731951
6.3600000000000	0.81193117930756
6.3700000000000	0.81092048695526
6.3800000000000	0.80994710951420
6.3900000000000	0.80901115475048
6.4000000000000	0.80811269183535
6.4100000000000	0.80725175405794
6.4200000000000	0.80642834136928
6.4300000000000	0.80564242276597
6.4400000000000	0.80489393852195
6.4500000000000	0.80418280227649
6.4600000000000	0.80350890298606
6.4700000000000	0.80287210674762
6.4800000000000	0.80227225850047
6.4900000000000	0.80170918361346
6.5000000000000	0.80118268936424
6.5100000000000	0.80069256631654
6.5200000000000	0.80023858960175
6.5300000000000	0.79982052011015
6.5400000000000	0.79943810559732
6.5500000000000	0.79909108171077
6.5600000000000	0.79877917294166
6.5700000000000	0.79850209350611
6.5800000000000	0.79825954816049
6.5900000000000	0.79805123295473
6.6000000000000	0.79787683592757
6.6100000000000	0.79773603774732
6.6200000000000	0.79762851230165
6.6300000000000	0.79755392723966
6.6400000000000	0.79751194446915
6.6500000000000	0.79750222061224
6.6600000000000	0.79752440742180
6.6700000000000	0.79757815216137
6.6800000000000	0.79766309795106
6.6900000000000	0.79777888408155
6.7000000000000	0.79792514629839
6.7100000000000	0.79810151705869
6.7200000000000	0.79830762576202
6.7300000000000	0.79854309895725
6.7400000000000	0.79880756052722
6.7500000000000	0.79910063185256
6.7600000000000	0.79942193195636
6.7700000000000	0.79977107763098
6.7800000000000	0.80014768354842
6.7900000000000	0.80055136235537
6.8000000000000	0.80098172475423
6.8100000000000	0.80143837957118
6.8200000000000	0.80192093381234
6.8300000000000	0.80242899270897
6.8400000000000	0.80296215975274
6.8500000000000	0.80352003672190
6.8600000000000	0.80410222369915
6.8700000000000	0.80470831908208
6.8800000000000	0.80533791958690
6.8900000000000	0.80599062024615
6.9000000000000	0.80666601440105
6.9100000000000	0.80736369368928
6.9200000000000	0.80808324802857
6.9300000000000	0.80882426559688
6.9400000000000	0.80958633280958
6.9500000000000	0.81036903429430
6.9600000000000	0.81117195286384
6.9700000000000	0.81199466948765
6.9800000000000	0.81283676326240
6.9900000000000	0.81369781138200
7.0000000000000	0.81457738910754
7.0100000000000	0.81547506973756
7.0200000000000	0.81639042457904
7.0300000000000	0.81732302291945
7.0400000000000	0.81827243200025
7.0500000000000	0.81923821699222
7.0600000000000	0.82021994097288
7.0700000000000	0.82121716490637
7.0800000000000	0.82222944762611
7.0900000000000	0.82325634582055
7.1000000000000	0.82429741402216
7.1100000000000	0.82535220460020
7.1200000000000	0.82642026775727
7.1300000000000	0.82750115153011
7.1400000000000	0.82859440179469
7.1500000000000	0.82969956227607
7.1600000000000	0.83081617456304
7.1700000000000	0.83194377812790
7.1800000000000	0.83308191035152
7.1900000000000	0.83423010655387
7.2000000000000	0.83538790003035
7.2100000000000	0.83655482209382
7.2200000000000	0.83773040212286
7.2300000000000	0.83891416761606
7.2400000000000	0.84010564425277
7.2500000000000	0.84130435596031
7.2600000000000	0.84250982498778
7.2700000000000	0.84372157198659
7.2800000000000	0.84493911609786
7.2900000000000	0.84616197504674
7.3000000000000	0.84738966524370
7.3100000000000	0.84862170189295
7.3200000000000	0.84985759910793
7.3300000000000	0.85109687003404
7.3400000000000	0.85233902697845
7.3500000000000	0.85358358154726
7.3600000000000	0.85483004478974
7.3700000000000	0.85607792734987
7.3800000000000	0.85732673962488
7.3900000000000	0.85857599193112
7.4000000000000	0.85982519467673
7.4100000000000	0.86107385854146
7.4200000000000	0.86232149466329
7.4300000000000	0.86356761483177
7.4400000000000	0.86481173168805
7.4500000000000	0.86605335893135
7.4600000000000	0.86729201153174
7.4700000000000	0.86852720594910
7.4800000000000	0.86975846035796
7.4900000000000	0.87098529487808
7.5000000000000	0.87220723181053
7.5100000000000	0.87342379587899
7.5200000000000	0.87463451447603
7.5300000000000	0.87583891791406
7.5400000000000	0.87703653968068
7.5500000000000	0.87822691669810
7.5600000000000	0.87940958958629
7.5700000000000	0.88058410292950
7.5800000000000	0.88175000554586
7.5900000000000	0.88290685075953
7.6000000000000	0.88405419667525
7.6100000000000	0.88519160645458
7.6200000000000	0.88631864859371
7.6300000000000	0.88743489720220
7.6400000000000	0.88853993228231
7.6500000000000	0.88963334000848
7.6600000000000	0.89071471300642
7.6700000000000	0.89178365063143
7.6800000000000	0.89283975924545
7.6900000000000	0.89388265249235
7.7000000000000	0.89491195157096
7.7100000000000	0.89592728550544
7.7200000000000	0.89692829141236
7.7300000000000	0.89791461476418
