#Parameters = {d=1; g=0.5; h=2.4; l=6; m=3; p=0.5; phi=0; s=1.3; t=0.035; theta=45; w=7}
#"Frequency / GHz"	"SZmax(2),Zmax(1) (theta=45) [Magnitude]"
#-----------------------------------------------------------
2.0000000000000	0.0034237560296537
2.0100000000000	0.0034828897353391
2.0200000000000	0.0035428368277529
2.0300000000000	0.0036036065434909
2.0400000000000	0.0036652082343996
2.0500000000000	0.0037276513692479
2.0600000000000	0.0037909455354208
2.0700000000000	0.0038551004406536
2.0800000000000	0.0039201259147815
2.0900000000000	0.0039860319115327
2.1000000000000	0.0040528285103312
2.1100000000000	0.0041205259181583
2.1200000000000	0.0041891344714219
2.1300000000000	0.0042586646378683
2.1400000000000	0.0043291270185246
2.1500000000000	0.0044005323496804
2.1600000000000	0.0044728915048767
2.1700000000000	0.0045462154969809
2.1800000000000	0.0046205154802412
2.1900000000000	0.0046958027524133
2.2000000000000	0.0047720887569041
2.2100000000000	0.0048493850849686
2.2200000000000	0.0049277034779324
2.2300000000000	0.0050070558294546
2.2400000000000	0.0050874541878333
2.2500000000000	0.0051689107583581
2.2600000000000	0.0052514379056844
2.2700000000000	0.0053350481562685
2.2800000000000	0.0054197542008329
2.2900000000000	0.0055055688968882
2.3000000000000	0.0055925052712871
2.3100000000000	0.0056805765228223
2.3200000000000	0.0057697960248815
2.3300000000000	0.0058601773281473
2.3400000000000	0.0059517341633375
2.3500000000000	0.0060444804439987
2.3600000000000	0.0061384302693518
2.3700000000000	0.0062335979271888
2.3800000000000	0.0063299978968104
2.3900000000000	0.0064276448520433
2.4000000000000	0.0065265536642815
2.4100000000000	0.0066267394055915
2.4200000000000	0.0067282173518970
2.4300000000000	0.0068310029861789
2.4400000000000	0.0069351120017835
2.4500000000000	0.0070405603057459
2.4600000000000	0.0071473640222016
2.4700000000000	0.0072555394958420
2.4800000000000	0.0073651032954762
2.4900000000000	0.0074760722175878
2.5000000000000	0.0075884632900164
2.5100000000000	0.0077022937756894
2.5200000000000	0.0078175811764241
2.5300000000000	0.0079343432367779
2.5400000000000	0.0080525979480256
2.5500000000000	0.0081723635521366
2.5600000000000	0.0082936585459084
2.5700000000000	0.0084165016850994
2.5800000000000	0.0085409119886978
2.5900000000000	0.0086669087432576
2.6000000000000	0.0087945115072838
2.6100000000000	0.0089237401157608
2.6200000000000	0.0090546146847017
2.6300000000000	0.0091871556158329
2.6400000000000	0.0093213836013690
2.6500000000000	0.0094573196288221
2.6600000000000	0.0095949849859810
2.6700000000000	0.0097344012659417
2.6800000000000	0.0098755903722395
2.6900000000000	0.010018574524087
2.7000000000000	0.010163376261713
2.7100000000000	0.010310018451816
2.7200000000000	0.010458524293102
2.7300000000000	0.010608917321945
2.7400000000000	0.010761221418171
2.7500000000000	0.010915460810927
2.7600000000000	0.011071660084696
2.7700000000000	0.011229844185406
2.7800000000000	0.011390038426693
2.7900000000000	0.011552268496233
2.8000000000000	0.011716560462282
2.8100000000000	0.011882940780265
2.8200000000000	0.012051436299556
2.8300000000000	0.012222074270368
2.8400000000000	0.012394882350783
2.8500000000000	0.012569888613941
2.8600000000000	0.012747121555362
2.8700000000000	0.012926610100403
2.8800000000000	0.013108383611914
2.8900000000000	0.013292471898002
2.9000000000000	0.013478905219984
2.9100000000000	0.013667714300483
2.9200000000000	0.013858930331720
2.9300000000000	0.014052584983954
2.9400000000000	0.014248710414104
2.9500000000000	0.014447339274560
2.9600000000000	0.014648504722152
2.9700000000000	0.014852240427364
2.9800000000000	0.015058580583666
2.9900000000000	0.015267559917102
3.0000000000000	0.015479213696062
3.0100000000000	0.015693577741246
3.0200000000000	0.015910688435874
3.0300000000000	0.016130582736081
3.0400000000000	0.016353298181551
3.0500000000000	0.016578872906385
3.0600000000000	0.016807345650183
3.0700000000000	0.017038755769384
3.0800000000000	0.017273143248850
3.0900000000000	0.017510548713691
3.1000000000000	0.017751013441358
3.1100000000000	0.017994579373988
3.1200000000000	0.018241289131039
3.1300000000000	0.018491186022189
3.1400000000000	0.018744314060519
3.1500000000000	0.019000717975990
3.1600000000000	0.019260443229229
3.1700000000000	0.019523536025602
3.1800000000000	0.019790043329618
3.1900000000000	0.020060012879651
3.2000000000000	0.020333493202983
3.2100000000000	0.020610533631202
3.2200000000000	0.020891184315932
3.2300000000000	0.021175496244933
3.2400000000000	0.021463521258554
3.2500000000000	0.021755312066569
3.2600000000000	0.022050922265400
3.2700000000000	0.022350406355724
3.2800000000000	0.022653819760494
3.2900000000000	0.022961218843373
3.3000000000000	0.023272660927596
3.3100000000000	0.023588204315263
3.3200000000000	0.023907908307086
3.3300000000000	0.024231833222603
3.3400000000000	0.024560040420852
3.3500000000000	0.024892592321537
3.3600000000000	0.025229552426695
3.3700000000000	0.025570985342869
3.3800000000000	0.025916956803813
3.3900000000000	0.026267533693729
3.4000000000000	0.026622784071066
3.4100000000000	0.026982777192879
3.4200000000000	0.027347583539779
3.4300000000000	0.027717274841480
3.4400000000000	0.028091924102964
3.4500000000000	0.028471605631280
3.4600000000000	0.028856395062986
3.4700000000000	0.029246369392270
3.4800000000000	0.029641606999751
3.4900000000000	0.030042187681984
3.5000000000000	0.030448192681698
3.5100000000000	0.030859704718769
3.5200000000000	0.031276808021964
3.5300000000000	0.031699588361472
3.5400000000000	0.032128133082245
3.5500000000000	0.032562531138164
3.5600000000000	0.033002873127066
3.5700000000000	0.033449251326649
3.5800000000000	0.033901759731279
3.5900000000000	0.034360494089726
3.6000000000000	0.034825551943855
3.6100000000000	0.035297032668301
3.6200000000000	0.035775037511156
3.6300000000000	0.036259669635689
3.6400000000000	0.036751034163140
3.6500000000000	0.037249238216613
3.6600000000000	0.037754390966099
3.6700000000000	0.038266603674663
3.6800000000000	0.038785989745829
3.6900000000000	0.039312664772194
3.7000000000000	0.039846746585314
3.7100000000000	0.040388355306891
3.7200000000000	0.040937613401303
3.7300000000000	0.041494645729513
3.7400000000000	0.042059579604413
3.7500000000000	0.042632544847605
3.7600000000000	0.043213673847719
3.7700000000000	0.043803101620259
3.7800000000000	0.044400965869052
3.7900000000000	0.045007407049349
3.8000000000000	0.045622568432607
3.8100000000000	0.046246596173013
3.8200000000000	0.046879639375813
3.8300000000000	0.047521850167474
3.8400000000000	0.048173383767758
3.8500000000000	0.048834398563752
3.8600000000000	0.049505056185909
3.8700000000000	0.050185521586175
3.8800000000000	0.050875963118257
3.8900000000000	0.051576552620078
3.9000000000000	0.052287465498520
3.9100000000000	0.053008880816495
3.9200000000000	0.053740981382430
3.9300000000000	0.054483953842215
3.9400000000000	0.055237988773738
3.9500000000000	0.056003280784015
3.9600000000000	0.056780028609056
3.9700000000000	0.057568435216510
3.9800000000000	0.058368707911193
3.9900000000000	0.059181058443580
4.0000000000000	0.060005703121337
4.0100000000000	0.060842862924013
4.0200000000000	0.061692763620955
4.0300000000000	0.062555635892578
4.0400000000000	0.063431715455036
4.0500000000000	0.064321243188486
4.0600000000000	0.065224465268934
4.0700000000000	0.066141633303885
4.0800000000000	0.067073004471830
4.0900000000000	0.068018841665728
4.1000000000000	0.068979413640578
4.1100000000000	0.069954995165218
4.1200000000000	0.070945867178467
4.1300000000000	0.071952316949738
4.1400000000000	0.072974638244259
4.1500000000000	0.074013131493033
4.1600000000000	0.075068103967671
4.1700000000000	0.076139869960249
4.1800000000000	0.077228750968325
4.1900000000000	0.078335075885263
4.2000000000000	0.079459181196025
4.2100000000000	0.080601411178573
4.2200000000000	0.081762118111053
4.2300000000000	0.082941662484898
4.2400000000000	0.084140413224042
4.2500000000000	0.085358747910394
4.2600000000000	0.086597053015724
4.2700000000000	0.087855724140194
4.2800000000000	0.089135166257618
4.2900000000000	0.090435793967701
4.3000000000000	0.091758031755406
4.3100000000000	0.093102314257611
4.3200000000000	0.094469086537267
4.3300000000000	0.095858804365215
4.3400000000000	0.097271934509842
4.3500000000000	0.098708955034776
4.3600000000000	0.10017035560476
4.3700000000000	0.10165663779992
4.3800000000000	0.10316831543858
4.3900000000000	0.10470591490877
4.4000000000000	0.10626997550864
4.4100000000000	0.10786104979595
4.4200000000000	0.10947970394662
4.4300000000000	0.11112651812278
4.4400000000000	0.11280208685016
4.4500000000000	0.11450701940513
4.4600000000000	0.11624194021138
4.4700000000000	0.11800748924638
4.4800000000000	0.11980432245779
4.4900000000000	0.12163311218960
4.5000000000000	0.12349454761831
4.5100000000000	0.12538933519904
4.5200000000000	0.12731819912141
4.5300000000000	0.12928188177539
4.5400000000000	0.13128114422678
4.5500000000000	0.13331676670223
4.5600000000000	0.13538954908367
4.5700000000000	0.13750031141187
4.5800000000000	0.13964989439869
4.5900000000000	0.14183915994787
4.6000000000000	0.14406899168362
4.6100000000000	0.14634029548673
4.6200000000000	0.14865400003740
4.6300000000000	0.15101105736405
4.6400000000000	0.15341244339737
4.6500000000000	0.15585915852849
4.6600000000000	0.15835222817026
4.6700000000000	0.16089270332030
4.6800000000000	0.16348166112440
4.6900000000000	0.16612020543861
4.7000000000000	0.16880946738823
4.7100000000000	0.17155060592168
4.7200000000000	0.17434480835676
4.7300000000000	0.17719329091691
4.7400000000000	0.18009729925459
4.7500000000000	0.18305810895841
4.7600000000000	0.18607702604057
4.7700000000000	0.18915538740077
4.7800000000000	0.19229456126195
4.7900000000000	0.19549594757321
4.8000000000000	0.19876097837462
4.8100000000000	0.20209111811777
4.8200000000000	0.20548786393580
4.8300000000000	0.20895274585571
4.8400000000000	0.21248732694491
4.8500000000000	0.21609320338365
4.8600000000000	0.21977200445361
4.8700000000000	0.22352539243247
4.8800000000000	0.22735506238290
4.8900000000000	0.23126274182375
4.9000000000000	0.23525019026980
4.9100000000000	0.23931919862528
4.9200000000000	0.24347158841508
4.9300000000000	0.24770921083623
4.9400000000000	0.25203394561047
4.9500000000000	0.25644769961748
4.9600000000000	0.26095240528634
4.9700000000000	0.26555001872108
4.9800000000000	0.27024251753430
4.9900000000000	0.27503189836074
5.0000000000000	0.27992017402062
5.0100000000000	0.28490937030031
5.0200000000000	0.29000152231568
5.0300000000000	0.29519867042098
5.0400000000000	0.30050285562372
5.0500000000000	0.30591611446372
5.0600000000000	0.31144047331177
5.0700000000000	0.31707794204096
5.0800000000000	0.32283050702166
5.0900000000000	0.32870012338824
5.1000000000000	0.33468870652420
5.1100000000000	0.34079812271002
5.1200000000000	0.34703017887662
5.1300000000000	0.35338661140632
5.1400000000000	0.35986907392242
5.1500000000000	0.36647912400851
5.1600000000000	0.37321820879962
5.1700000000000	0.38008764938892
5.1800000000000	0.38708862399661
5.1900000000000	0.39422214985192
5.2000000000000	0.40148906374500
5.2100000000000	0.40889000121269
5.2200000000000	0.41642537433242
5.2300000000000	0.42409534810979
5.2400000000000	0.43189981546050
5.2500000000000	0.43983837080442
5.2600000000000	0.44791028231046
5.2700000000000	0.45611446285507
5.2800000000000	0.46444943978490
5.2900000000000	0.47291332360620
5.3000000000000	0.48150377575941
5.3100000000000	0.49021797567743
5.3200000000000	0.49905258737041
5.3300000000000	0.50800372582822
5.3400000000000	0.51706692358371
5.3500000000000	0.52623709783502
5.3600000000000	0.53550851858279
5.3700000000000	0.54487477829734
5.3800000000000	0.55432876368986
5.3900000000000	0.56386263021987
5.4000000000000	0.57346778002526
5.4100000000000	0.58313484401054
5.4200000000000	0.59285366886951
5.4300000000000	0.60261330984849
5.4400000000000	0.61240203007198
5.4500000000000	0.62220730725145
5.4600000000000	0.63201584857588
5.4700000000000	0.64181361453758
5.4800000000000	0.65158585237537
5.4900000000000	0.66131713971680
5.5000000000000	0.67099143887157
5.5100000000000	0.68059216206703
5.5200000000000	0.69010224772669
5.5300000000000	0.69950424767342
5.5400000000000	0.70878042489661
5.5500000000000	0.71791286126005
5.5600000000000	0.72688357425258
5.5700000000000	0.73567464160500
5.5800000000000	0.74426833232335
5.5900000000000	0.75264724243144
5.6000000000000	0.76079443348566
5.6100000000000	0.76869357173356
5.6200000000000	0.77632906564463
5.6300000000000	0.78368619945673
5.6400000000000	0.79075126036174
5.6500000000000	0.79751165700340
5.6600000000000	0.80395602708169
5.6700000000000	0.81007433204882
5.6800000000000	0.81585793713814
5.6900000000000	0.82129967527993
5.7000000000000	0.82639389381767
5.7100000000000	0.83113648333008
5.7200000000000	0.83552488827502
5.7300000000000	0.83955809958460
5.7400000000000	0.84323662974157
5.7500000000000	0.84656247124149
5.7600000000000	0.84953903967927
5.7700000000000	0.85217110298355
5.7800000000000	0.85446469854965
5.7900000000000	0.85642704018655
5.8000000000000	0.85806641689507
5.8100000000000	0.85939208553311
5.8200000000000	0.86041415940385
5.8300000000000	0.86114349473041
5.8400000000000	0.86159157686230
5.8500000000000	0.86177040790404
5.8600000000000	0.86169239727373
5.8700000000000	0.86137025649764
5.8800000000000	0.86081689933508
5.8900000000000	0.86004534811347
5.9000000000000	0.85906864694363
5.9100000000000	0.85789978228553
5.9200000000000	0.85655161114960
5.9300000000000	0.85503679705106
5.9400000000000	0.85336775368747
5.9500000000000	0.85155659618314
5.9600000000000	0.84961509963902
5.9700000000000	0.84755466464185
5.9800000000000	0.84538628932177
5.9900000000000	0.84312054750064
6.0000000000000	0.84076757244249
6.0100000000000	0.83833704570135
6.0200000000000	0.83583819055754
6.0300000000000	0.83327976953926
6.0400000000000	0.83067008554097
6.0500000000000	0.82801698607050
6.0600000000000	0.82532787018274
6.0700000000000	0.82260969768666
6.0800000000000	0.81986900024388
6.0900000000000	0.81711189400918
6.1000000000000	0.81434409349643
6.1100000000000	0.81157092638533
6.1200000000000	0.80879734901582
6.1300000000000	0.80602796234699
6.1400000000000	0.80326702818523
6.1500000000000	0.80051848551309
6.1600000000000	0.79778596677409
6.1700000000000	0.79507281399124
6.1800000000000	0.79238209461717
6.1900000000000	0.78971661703159
6.2000000000000	0.78707894561816
6.2100000000000	0.78447141536728
6.2200000000000	0.78189614596351
6.2300000000000	0.77935505532765
6.2400000000000	0.77684987259282
6.2500000000000	0.77438215050221
6.2600000000000	0.77195327722275
6.2700000000000	0.76956448757544
6.2800000000000	0.76721687368712
6.2900000000000	0.76491139507338
6.3000000000000	0.76264888816476
6.3100000000000	0.76043007529158
6.3200000000000	0.75825557314449
6.3300000000000	0.75612590072930
6.3400000000000	0.75404148683598
6.3500000000000	0.75200267704219
6.3600000000000	0.75000974027239
6.3700000000000	0.74806287493336
6.3800000000000	0.74616221464737
6.3900000000000	0.74430783360367
6.4000000000000	0.74249975154866
6.4100000000000	0.74073793843477
6.4200000000000	0.73902231874721
6.4300000000000	0.73735277552749
6.4400000000000	0.73572915411151
6.4500000000000	0.73415126559954
6.4600000000000	0.73261889007465
6.4700000000000	0.73113177958523
6.4800000000000	0.72968966090660
6.4900000000000	0.72829223809601
6.5000000000000	0.72693919485429
6.5100000000000	0.72563019670714
6.5200000000000	0.72436489301778
6.5300000000000	0.72314291884258
6.5400000000000	0.72196389664007
6.5500000000000	0.72082743784359
6.5600000000000	0.71973314430672
6.5700000000000	0.71868060963063
6.5800000000000	0.71766942038132
6.5900000000000	0.71669915720472
6.6000000000000	0.71576939584681
6.6100000000000	0.71487970808553
6.6200000000000	0.71402966258076
6.6300000000000	0.71321882564846
6.6400000000000	0.71244676196431
6.6500000000000	0.71171303520197
6.6600000000000	0.71101720861098
6.6700000000000	0.71035884553854
6.6800000000000	0.70973750989937
6.6900000000000	0.70915276659763
6.7000000000000	0.70860418190441
6.7100000000000	0.70809132379416
6.7200000000000	0.70761376224319
6.7300000000000	0.70717106949309
6.7400000000000	0.70676282028185
6.7500000000000	0.70638859204513
6.7600000000000	0.70604796508995
6.7700000000000	0.70574052274309
6.7800000000000	0.70546585147607
6.7900000000000	0.70522354100866
6.8000000000000	0.70501318439258
6.8100000000000	0.70483437807710
6.8200000000000	0.70468672195785
6.8300000000000	0.70456981941042
6.8400000000000	0.70448327730988
6.8500000000000	0.70442670603746
6.8600000000000	0.70439971947551
6.8700000000000	0.70440193499172
6.8800000000000	0.70443297341361
6.8900000000000	0.70449245899407
6.9000000000000	0.70458001936884
6.9100000000000	0.70469528550670
6.9200000000000	0.70483789165299
6.9300000000000	0.70500747526717
6.9400000000000	0.70520367695504
6.9500000000000	0.70542614039607
6.9600000000000	0.70567451226654
6.9700000000000	0.70594844215880
6.9800000000000	0.70624758249715
6.9900000000000	0.70657158845087
7.0000000000000	0.70692011784455
7.0100000000000	0.70729283106636
7.0200000000000	0.70768939097431
7.0300000000000	0.70810946280110
7.0400000000000	0.70855271405757
7.0500000000000	0.70901881443522
7.0600000000000	0.70950743570800
7.0700000000000	0.71001825163351
7.0800000000000	0.71055093785404
7.0900000000000	0.71110517179734
7.1000000000000	0.71168063257772
7.1100000000000	0.71227700089723
7.1200000000000	0.71289395894746
7.1300000000000	0.71353119031188
7.1400000000000	0.71418837986894
7.1500000000000	0.71486521369617
7.1600000000000	0.71556137897520
7.1700000000000	0.71627656389814
7.1800000000000	0.71701045757507
7.1900000000000	0.71776274994306
7.2000000000000	0.71853313167673
7.2100000000000	0.71932129410037
7.2200000000000	0.72012692910188
7.2300000000000	0.72094972904847
7.2400000000000	0.72178938670438
7.2500000000000	0.72264559515054
7.2600000000000	0.72351804770638
7.2700000000000	0.72440643785385
7.2800000000000	0.72531045916370
7.2900000000000	0.72622980522414
7.3000000000000	0.72716416957190
7.3100000000000	0.72811324562589
7.3200000000000	0.72907672662335
7.3300000000000	0.73005430555876
7.3400000000000	0.73104567512546
7.3500000000000	0.73205052766005
7.3600000000000	0.73306855508970
7.3700000000000	0.73409944888243
7.3800000000000	0.73514290000035
7.3900000000000	0.73619859885606
7.4000000000000	0.73726623527209
7.4100000000000	0.73834549844366
7.4200000000000	0.73943607690464
7.4300000000000	0.74053765849685
7.4400000000000	0.74164993034275
7.4500000000000	0.74277257882161
7.4600000000000	0.74390528954913
7.4700000000000	0.74504774736065
7.4800000000000	0.74619963629794
7.4900000000000	0.74736063959964
7.5000000000000	0.74853043969545
7.5100000000000	0.74970871820403
7.5200000000000	0.75089515593470
7.5300000000000	0.75208943289293
7.5400000000000	0.75329122828982
7.5500000000000	0.75450022055531
7.5600000000000	0.75571608735550
7.5700000000000	0.75693850561381
7.5800000000000	0.75816715153621
7.5900000000000	0.75940170064037
7.6000000000000	0.76064182778901
7.6100000000000	0.76188720722707
7.6200000000000	0.76313751262313
7.6300000000000	0.76439241711483
7.6400000000000	0.76565159335828
7.6500000000000	0.76691471358166
7.6600000000000	0.76818144964279
7.6700000000000	0.76945147309078
7.6800000000000	0.77072445523166
7.6900000000000	0.77200006719811
7.7000000000000	0.77327798002306
7.7100000000000	0.77455786471729
