#Parameters = {d=1; g=0.5; h=2.4; l=6; m=3; p=0.5; phi=0; s=1.3; t=0.035; theta=0; w=7}
#"Frequency / GHz"	"SZmax(2),Zmax(1) [Magnitude]"
#------------------------------------------------
2.0000000000000	0.0039190031285988
2.0100000000000	0.0039871138853957
2.0200000000000	0.0040561678634714
2.0300000000000	0.0041261760542784
2.0400000000000	0.0041971495890374
2.0500000000000	0.0042690997408110
2.0600000000000	0.0043420379266158
2.0700000000000	0.0044159757095684
2.0800000000000	0.0044909248010674
2.0900000000000	0.0045668970630153
2.1000000000000	0.0046439045100787
2.1100000000000	0.0047219593119817
2.1200000000000	0.0048010737958505
2.1300000000000	0.0048812604485841
2.1400000000000	0.0049625319192801
2.1500000000000	0.0050449010216898
2.1600000000000	0.0051283807367282
2.1700000000000	0.0052129842150216
2.1800000000000	0.0052987247794941
2.1900000000000	0.0053856159280141
2.2000000000000	0.0054736713360730
2.2100000000000	0.0055629048595193
2.2200000000000	0.0056533305373384
2.2300000000000	0.0057449625944816
2.2400000000000	0.0058378154447430
2.2500000000000	0.0059319036936986
2.2600000000000	0.0060272421416778
2.2700000000000	0.0061238457868062
2.2800000000000	0.0062217298280955
2.2900000000000	0.0063209096685896
2.3000000000000	0.0064214009185595
2.3100000000000	0.0065232193987756
2.3200000000000	0.0066263811438183
2.3300000000000	0.0067309024054591
2.3400000000000	0.0068367996560995
2.3500000000000	0.0069440895922775
2.3600000000000	0.0070527891382296
2.3700000000000	0.0071629154495253
2.3800000000000	0.0072744859167682
2.3900000000000	0.0073875181693548
2.4000000000000	0.0075020300793186
2.4100000000000	0.0076180397652221
2.4200000000000	0.0077355655961636
2.4300000000000	0.0078546261957878
2.4400000000000	0.0079752404464518
2.4500000000000	0.0080974274934146
2.4600000000000	0.0082212067491076
2.4700000000000	0.0083465978975212
2.4800000000000	0.0084736208986284
2.4900000000000	0.0086022959929252
2.5000000000000	0.0087326437060456
2.5100000000000	0.0088646848534466
2.5200000000000	0.0089984405452216
2.5300000000000	0.0091339321909602
2.5400000000000	0.0092711815047305
2.5500000000000	0.0094102105101532
2.5600000000000	0.0095510415455517
2.5700000000000	0.0096936972692341
2.5800000000000	0.0098382006648497
2.5900000000000	0.0099845750468523
2.6000000000000	0.010132844066088
2.6100000000000	0.010283031715469
2.6200000000000	0.010435162335771
2.6300000000000	0.010589260621530
2.6400000000000	0.010745351627079
2.6500000000000	0.010903460772669
2.6600000000000	0.011063613850740
2.6700000000000	0.011225837032300
2.6800000000000	0.011390156873436
2.6900000000000	0.011556600321937
2.7000000000000	0.011725194724082
2.7100000000000	0.011895967831526
2.7200000000000	0.012068947808350
2.7300000000000	0.012244163238233
2.7400000000000	0.012421643131782
2.7500000000000	0.012601416934003
2.7600000000000	0.012783514531918
2.7700000000000	0.012967966262345
2.7800000000000	0.013154802919827
2.7900000000000	0.013344055764725
2.8000000000000	0.013535756531479
2.8100000000000	0.013729937437032
2.8200000000000	0.013926631189419
2.8300000000000	0.014125870996563
2.8400000000000	0.014327690575209
2.8500000000000	0.014532124160070
2.8600000000000	0.014739206513158
2.8700000000000	0.014948972933301
2.8800000000000	0.015161459265862
2.8900000000000	0.015376701912659
2.9000000000000	0.015594737842095
2.9100000000000	0.015815604599496
2.9200000000000	0.016039340317670
2.9300000000000	0.016265983727682
2.9400000000000	0.016495574169865
2.9500000000000	0.016728151605049
2.9600000000000	0.016963756626056
2.9700000000000	0.017202430469401
2.9800000000000	0.017444215027280
2.9900000000000	0.017689152859783
3.0000000000000	0.017937287207396
3.0100000000000	0.018188662003750
3.0200000000000	0.018443321888658
3.0300000000000	0.018701312221426
3.0400000000000	0.018962679094459
3.0500000000000	0.019227469347155
3.0600000000000	0.019495730580113
3.0700000000000	0.019767511169637
3.0800000000000	0.020042860282569
3.0900000000000	0.020321827891442
3.1000000000000	0.020604464789972
3.1100000000000	0.020890822608885
3.1200000000000	0.021180953832099
3.1300000000000	0.021474911813265
3.1400000000000	0.021772750792677
3.1500000000000	0.022074525914555
3.1600000000000	0.022380293244721
3.1700000000000	0.022690109788668
3.1800000000000	0.023004033510037
3.1900000000000	0.023322123349507
3.2000000000000	0.023644439244123
3.2100000000000	0.023971042147048
3.2200000000000	0.024301994047780
3.2300000000000	0.024637357992813
3.2400000000000	0.024977198106790
3.2500000000000	0.025321579614123
3.2600000000000	0.025670568861123
3.2700000000000	0.026024233338635
3.2800000000000	0.026382641705199
3.2900000000000	0.026745863810742
3.3000000000000	0.027113970720832
3.3100000000000	0.027487034741484
3.3200000000000	0.027865129444561
3.3300000000000	0.028248329693753
3.3400000000000	0.028636711671186
3.3500000000000	0.029030352904639
3.3600000000000	0.029429332295419
3.3700000000000	0.029833730146891
3.3800000000000	0.030243628193681
3.3900000000000	0.030659109631583
3.4000000000000	0.031080259148176
3.4100000000000	0.031507162954174
3.4200000000000	0.031939908815528
3.4300000000000	0.032378586086308
3.4400000000000	0.032823285742364
3.4500000000000	0.033274100415817
3.4600000000000	0.033731124430380
3.4700000000000	0.034194453837535
3.4800000000000	0.034664186453597
3.4900000000000	0.035140421897684
3.5000000000000	0.035623261630618
3.5100000000000	0.036112808994776
3.5200000000000	0.036609169254932
3.5300000000000	0.037112449640098
3.5400000000000	0.037622759386414
3.5500000000000	0.038140209781086
3.5600000000000	0.038664914207431
3.5700000000000	0.039196988191038
3.5800000000000	0.039736549447088
3.5900000000000	0.040283717928854
3.6000000000000	0.040838615877425
3.6100000000000	0.041401367872679
3.6200000000000	0.041972100885543
3.6300000000000	0.042550944331576
3.6400000000000	0.043138030125907
3.6500000000000	0.043733492739576
3.6600000000000	0.044337469257299
3.6700000000000	0.044950099436721
3.6800000000000	0.045571525769173
3.6900000000000	0.046201893541987
3.7000000000000	0.046841350902418
3.7100000000000	0.047490048923212
3.7200000000000	0.048148141669852
3.7300000000000	0.048815786269551
3.7400000000000	0.049493142982035
3.7500000000000	0.050180375272153
3.7600000000000	0.050877649884372
3.7700000000000	0.051585136919224
3.7800000000000	0.052303009911729
3.7900000000000	0.053031445911879
3.8000000000000	0.053770625567223
3.8100000000000	0.054520733207607
3.8200000000000	0.055281956932157
3.8300000000000	0.056054488698519
3.8400000000000	0.056838524414475
3.8500000000000	0.057634264031954
3.8600000000000	0.058441911643524
3.8700000000000	0.059261675581434
3.8800000000000	0.060093768519279
3.8900000000000	0.060938407576338
3.9000000000000	0.061795814424694
3.9100000000000	0.062666215399168
3.9200000000000	0.063549841610192
3.9300000000000	0.064446929059652
3.9400000000000	0.065357718759822
3.9500000000000	0.066282456855440
3.9600000000000	0.067221394749039
3.9700000000000	0.068174789229583
3.9800000000000	0.069142902604538
3.9900000000000	0.070126002835436
4.0000000000000	0.071124363677024
4.0100000000000	0.072138264820124
4.0200000000000	0.073167992038253
4.0300000000000	0.074213837338127
4.0400000000000	0.075276099114151
4.0500000000000	0.076355082306969
4.0600000000000	0.077451098566202
4.0700000000000	0.078564466417453
4.0800000000000	0.079695511433705
4.0900000000000	0.080844566411195
4.1000000000000	0.082011971549873
4.1100000000000	0.083198074638572
4.1200000000000	0.084403231244970
4.1300000000000	0.085627804910450
4.1400000000000	0.086872167349996
4.1500000000000	0.088136698657190
4.1600000000000	0.089421787514442
4.1700000000000	0.090727831408552
4.1800000000000	0.092055236851695
4.1900000000000	0.093404419607957
4.2000000000000	0.094775804925483
4.2100000000000	0.096169827774374
4.2200000000000	0.097586933090390
4.2300000000000	0.099027576024574
4.2400000000000	0.10049222219887
4.2500000000000	0.10198134796780
4.2600000000000	0.10349544068629
4.2700000000000	0.10503499898375
4.2800000000000	0.10660053304433
4.2900000000000	0.10819256489353
4.3000000000000	0.10981162869120
4.3100000000000	0.11145827103083
4.3200000000000	0.11313305124528
4.3300000000000	0.11483654171880
4.3400000000000	0.11656932820552
4.3500000000000	0.11833201015407
4.3600000000000	0.12012520103864
4.3700000000000	0.12194952869598
4.3800000000000	0.12380563566859
4.3900000000000	0.12569417955372
4.4000000000000	0.12761583335806
4.4100000000000	0.12957128585799
4.4200000000000	0.13156124196504
4.4300000000000	0.13358642309621
4.4400000000000	0.13564756754907
4.4500000000000	0.13774543088086
4.4600000000000	0.13988078629145
4.4700000000000	0.14205442500954
4.4800000000000	0.14426715668140
4.4900000000000	0.14651980976165
4.5000000000000	0.14881323190529
4.5100000000000	0.15114829036003
4.5200000000000	0.15352587235816
4.5300000000000	0.15594688550677
4.5400000000000	0.15841225817522
4.5500000000000	0.16092293987859
4.5600000000000	0.16347990165561
4.5700000000000	0.16608413643956
4.5800000000000	0.16873665942036
4.5900000000000	0.17143850839589
4.6000000000000	0.17419074411048
4.6100000000000	0.17699445057821
4.6200000000000	0.17985073538842
4.6300000000000	0.18276072999074
4.6400000000000	0.18572558995635
4.6500000000000	0.18874649521239
4.6600000000000	0.19182465024552
4.6700000000000	0.19496128427090
4.6800000000000	0.19815765136204
4.6900000000000	0.20141503053675
4.7000000000000	0.20473472579410
4.7100000000000	0.20811806609661
4.7200000000000	0.21156640529163
4.7300000000000	0.21508112196522
4.7400000000000	0.21866361922128
4.7500000000000	0.22231532437817
4.7600000000000	0.22603768857434
4.7700000000000	0.22983218627383
4.7800000000000	0.23370031466179
4.7900000000000	0.23764359291946
4.8000000000000	0.24166356136707
4.8100000000000	0.24576178046245
4.8200000000000	0.24993982964212
4.8300000000000	0.25419930599078
4.8400000000000	0.25854182272393
4.8500000000000	0.26296900746762
4.8600000000000	0.26748250031793
4.8700000000000	0.27208395166189
4.8800000000000	0.27677501974031
4.8900000000000	0.28155736793187
4.9000000000000	0.28643266173651
4.9100000000000	0.29140256543519
4.9200000000000	0.29646873840157
4.9300000000000	0.30163283104045
4.9400000000000	0.30689648032611
4.9500000000000	0.31226130491312
4.9600000000000	0.31772889979094
4.9700000000000	0.32330083045271
4.9800000000000	0.32897862654813
4.9900000000000	0.33476377498947
5.0000000000000	0.34065771247975
5.0100000000000	0.34666181743172
5.0200000000000	0.35277740124688
5.0300000000000	0.35900569892430
5.0400000000000	0.36534785897000
5.0500000000000	0.37180493257969
5.0600000000000	0.37837786206955
5.0700000000000	0.38506746853299
5.0800000000000	0.39187443870512
5.0900000000000	0.39879931102127
5.1000000000000	0.40584246086173
5.1100000000000	0.41300408498175
5.1200000000000	0.42028418513394
5.1300000000000	0.42768255089956
5.1400000000000	0.43519874175635
5.1500000000000	0.44283206842290
5.1600000000000	0.45058157353353
5.1700000000000	0.45844601171389
5.1800000000000	0.46642382914477
5.1900000000000	0.47451314272109
5.2000000000000	0.48271171893432
5.2100000000000	0.49101695262904
5.2200000000000	0.49942584580919
5.2300000000000	0.50793498669463
5.2400000000000	0.51654052925587
5.2500000000000	0.52523817348181
5.2600000000000	0.53402314666319
5.2700000000000	0.54289018600133
5.2800000000000	0.55183352287813
5.2900000000000	0.56084686914742
5.3000000000000	0.56992340582917
5.3100000000000	0.57905577460577
5.3200000000000	0.58823607253232
5.3300000000000	0.59745585037972
5.3400000000000	0.60670611502842
5.3500000000000	0.61597733632204
5.3600000000000	0.62525945877106
5.3700000000000	0.63454191846761
5.3800000000000	0.64381366553119
5.3900000000000	0.65306319235233
5.4000000000000	0.66227856783486
5.4100000000000	0.67144747775960
5.4200000000000	0.68055727130130
5.4300000000000	0.68959501362935
5.4400000000000	0.69854754441092
5.4500000000000	0.70740154191623
5.4600000000000	0.71614359230143
5.4700000000000	0.72476026351791
5.4800000000000	0.73323818317222
5.4900000000000	0.74156411954087
5.5000000000000	0.74972506483445
5.5100000000000	0.75770831970838
5.5200000000000	0.76550157793874
5.5300000000000	0.77309301012358
5.5400000000000	0.78047134523636
5.5500000000000	0.78762594885158
5.5600000000000	0.79454689688398
5.5700000000000	0.80122504373362
5.5800000000000	0.80765208380757
5.5900000000000	0.81382060549561
5.6000000000000	0.81972413680683
5.6100000000000	0.82535718202513
5.6200000000000	0.83071524890836
5.6300000000000	0.83579486613361
5.6400000000000	0.84059359087487
5.6500000000000	0.84511000658216
5.6600000000000	0.84934371120916
5.6700000000000	0.85329529630315
5.6800000000000	0.85696631752224
5.6900000000000	0.86035925727732
5.7000000000000	0.86347748030552
5.7100000000000	0.86632518306798
5.7200000000000	0.86890733792492
5.7300000000000	0.87122963307580
5.7400000000000	0.87329840926329
5.7500000000000	0.87512059422708
5.7600000000000	0.87670363586097
5.7700000000000	0.87805543497563
5.7800000000000	0.87918427850401
5.7900000000000	0.88009877390903
5.8000000000000	0.88080778546769
5.8100000000000	0.88132037301496
5.8200000000000	0.88164573363760
5.8300000000000	0.88179314671518
5.8400000000000	0.88177192261540
5.8500000000000	0.88159135526484
5.8600000000000	0.88126067873633
5.8700000000000	0.88078902792128
5.8800000000000	0.88018540329013
5.8900000000000	0.87945863968707
5.9000000000000	0.87861737905671
5.9100000000000	0.87767004695965
5.9200000000000	0.87662483270142
5.9300000000000	0.87548967287419
5.9400000000000	0.87427223809178
5.9500000000000	0.87297992268666
5.9600000000000	0.87161983713044
5.9700000000000	0.87019880293731
5.9800000000000	0.86872334981166
5.9900000000000	0.86719971480636
6.0000000000000	0.86563384326591
6.0100000000000	0.86403139133884
6.0200000000000	0.86239772985507
6.0300000000000	0.86073794937688
6.0400000000000	0.85905686624521
6.0500000000000	0.85735902945730
6.0600000000000	0.85564872822479
6.0700000000000	0.85393000007599
6.0800000000000	0.85220663937841
6.0900000000000	0.85048220617140
6.1000000000000	0.84876003521015
6.1100000000000	0.84704324513442
6.1200000000000	0.84533474768589
6.1300000000000	0.84363725690786
6.1400000000000	0.84195329827070
6.1500000000000	0.84028521767430
6.1600000000000	0.83863519028692
6.1700000000000	0.83700522918640
6.1800000000000	0.83539719377611
6.1900000000000	0.83381279795352
6.2000000000000	0.83225361801408
6.2100000000000	0.83072110027758
6.2200000000000	0.82921656842794
6.2300000000000	0.82774123056054
6.2400000000000	0.82629618593436
6.2500000000000	0.82488243142834
6.2600000000000	0.82350086770363
6.2700000000000	0.82215230507521
6.2800000000000	0.82083746909770
6.2900000000000	0.81955700587148
6.3000000000000	0.81831148707614
6.3100000000000	0.81710141473920
6.3200000000000	0.81592722574842
6.3300000000000	0.81478929611675
6.3400000000000	0.81368794500892
6.3500000000000	0.81262343853925
6.3600000000000	0.81159599335012
6.3700000000000	0.81060577998049
6.3800000000000	0.80965292603410
6.3900000000000	0.80873751915654
6.4000000000000	0.80785960983047
6.4100000000000	0.80701921399786
6.4200000000000	0.80621631551802
6.4300000000000	0.80545086846992
6.4400000000000	0.80472279930696
6.4500000000000	0.80403200887210
6.4600000000000	0.80337837428090
6.4700000000000	0.80276175067994
6.4800000000000	0.80218197288736
6.4900000000000	0.80163885692236
6.5000000000000	0.80113220143008
6.5100000000000	0.80066178900774
6.5200000000000	0.80022738743803
6.5300000000000	0.79982875083510
6.5400000000000	0.79946562070848
6.5500000000000	0.79913772694977
6.5600000000000	0.79884478874685
6.5700000000000	0.79858651543008
6.5800000000000	0.79836260725456
6.5900000000000	0.79817275612262
6.6000000000000	0.79801664625002
6.6100000000000	0.79789395477970
6.6200000000000	0.79780435234613
6.6300000000000	0.79774750359368
6.6400000000000	0.79772306765170
6.6500000000000	0.79773069856939
6.6600000000000	0.79777004571282
6.6700000000000	0.79784075412686
6.6800000000000	0.79794246486413
6.6900000000000	0.79807481528328
6.7000000000000	0.79823743931864
6.7100000000000	0.79842996772331
6.7200000000000	0.79865202828725
6.7300000000000	0.79890324603247
6.7400000000000	0.79918324338661
6.7500000000000	0.79949164033668
6.7600000000000	0.79982805456429
6.7700000000000	0.80019210156377
6.7800000000000	0.80058339474447
6.7900000000000	0.80100154551842
6.8000000000000	0.80144616337454
6.8100000000000	0.80191685594043
6.8200000000000	0.80241322903277
6.8300000000000	0.80293488669736
6.8400000000000	0.80348143123959
6.8500000000000	0.80405246324629
6.8600000000000	0.80464758159975
6.8700000000000	0.80526638348465
6.8800000000000	0.80590846438873
6.8900000000000	0.80657341809772
6.9000000000000	0.80726083668538
6.9100000000000	0.80797031049916
6.9200000000000	0.80870142814212
6.9300000000000	0.80945377645159
6.9400000000000	0.81022694047535
6.9500000000000	0.81102050344548
6.9600000000000	0.81183404675075
6.9700000000000	0.81266714990775
6.9800000000000	0.81351939053135
6.9900000000000	0.81439034430488
7.0000000000000	0.81527958495046
7.0100000000000	0.81618668419983
7.0200000000000	0.81711121176619
7.0300000000000	0.81805273531721
7.0400000000000	0.81901082044982
7.0500000000000	0.81998503066690
7.0600000000000	0.82097492735632
7.0700000000000	0.82198006977260
7.0800000000000	0.82300001502156
7.0900000000000	0.82403431804811
7.1000000000000	0.82508253162769
7.1100000000000	0.82614420636136
7.1200000000000	0.82721889067508
7.1300000000000	0.82830613082321
7.1400000000000	0.82940547089659
7.1500000000000	0.83051645283542
7.1600000000000	0.83163861644714
7.1700000000000	0.83277149942953
7.1800000000000	0.83391463739925
7.1900000000000	0.83506756392603
7.2000000000000	0.83622981057260
7.2100000000000	0.83740090694069
7.2200000000000	0.83858038072312
7.2300000000000	0.83976775776222
7.2400000000000	0.84096256211471
7.2500000000000	0.84216431612312
7.2600000000000	0.84337254049398
7.2700000000000	0.84458675438271
7.2800000000000	0.84580647548558
7.2900000000000	0.84703122013850
7.3000000000000	0.84826050342296
7.3100000000000	0.84949383927915
7.3200000000000	0.85073074062609
7.3300000000000	0.85197071948916
7.3400000000000	0.85321328713469
7.3500000000000	0.85445795421190
7.3600000000000	0.85570423090196
7.3700000000000	0.85695162707432
7.3800000000000	0.85819965245013
7.3900000000000	0.85944781677281
7.4000000000000	0.86069562998558
7.4100000000000	0.86194260241592
7.4200000000000	0.86318824496695
7.4300000000000	0.86443206931537
7.4400000000000	0.86567358811606
7.4500000000000	0.86691231521302
7.4600000000000	0.86814776585659
7.4700000000000	0.86937945692666
7.4800000000000	0.87060690716173
7.4900000000000	0.87182963739354
7.5000000000000	0.87304717078710
7.5100000000000	0.87425903308575
7.5200000000000	0.87546475286113
7.5300000000000	0.87666386176752
7.5400000000000	0.87785589480056
7.5500000000000	0.87904039055972
7.5600000000000	0.88021689151436
7.5700000000000	0.88138494427297
7.5800000000000	0.88254409985521
7.5900000000000	0.88369391396634
7.6000000000000	0.88483394727374
7.6100000000000	0.88596376568494
7.6200000000000	0.88708294062690
7.6300000000000	0.88819104932602
7.6400000000000	0.88928767508841
7.6500000000000	0.89037240758003
7.6600000000000	0.89144484310622
7.6700000000000	0.89250458489009
7.6800000000000	0.89355124334939
7.6900000000000	0.89458443637126
7.7000000000000	0.89560378958451
7.7100000000000	0.89660893662881
7.7200000000000	0.89759951942038
7.7300000000000	0.89857518841368
