#Parameters = {d=1; g=0.5; h=2.4; l=6; m=3; p=0.5; phi=0; s=1.3; t=0.035; theta=0; w=7}
#"Frequency / GHz"	"SZmax(1),Zmax(1) (s=1.3) [Magnitude]"
#--------------------------------------------------------
2.0000000000000	-0.0045249781838765
2.0100000000000	-0.0045422206078570
2.0200000000000	-0.0045617623067133
2.0300000000000	-0.0045835967617615
2.0400000000000	-0.0046077176768892
2.0500000000000	-0.0046341189825214
2.0600000000000	-0.0046627948397684
2.0700000000000	-0.0046937396445641
2.0800000000000	-0.0047269480318928
2.0900000000000	-0.0047624148800809
2.1000000000000	-0.0048001353152269
2.1100000000000	-0.0048401047155994
2.1200000000000	-0.0048823187162201
2.1300000000000	-0.0049267732134816
2.1400000000000	-0.0049734643697789
2.1500000000000	-0.0050223886183996
2.1600000000000	-0.0050735426683739
2.1700000000000	-0.0051269235093404
2.1800000000000	-0.0051825284168087
2.1900000000000	-0.0052403549571095
2.2000000000000	-0.0053004009928002
2.2100000000000	-0.0053626646879199
2.2200000000000	-0.0054271445135529
2.2300000000000	-0.0054938392532763
2.2400000000000	-0.0055627480089989
2.2500000000000	-0.0056338702066095
2.2600000000000	-0.0057072056019330
2.2700000000000	-0.0057827542868063
2.2800000000000	-0.0058605166951469
2.2900000000000	-0.0059404936094110
2.3000000000000	-0.0060226861666898
2.3100000000000	-0.0061070958655498
2.3200000000000	-0.0061937245725843
2.3300000000000	-0.0062825745292123
2.3400000000000	-0.0063736483587676
2.3500000000000	-0.0064669490734235
2.3600000000000	-0.0065624800816438
2.3700000000000	-0.0066602451955211
2.3800000000000	-0.0067602486384225
2.3900000000000	-0.0068624950525971
2.4000000000000	-0.0069669895073782
2.4100000000000	-0.0070737375069855
2.4200000000000	-0.0071827449990816
2.4300000000000	-0.0072940183830031
2.4400000000000	-0.0074075645186525
2.4500000000000	-0.0075233907352358
2.4600000000000	-0.0076415048402988
2.4700000000000	-0.0077619151291735
2.4800000000000	-0.0078846303942641
2.4900000000000	-0.0080096599348933
2.5000000000000	-0.0081370135672609
2.5100000000000	-0.0082667016344900
2.5200000000000	-0.0083987350172052
2.5300000000000	-0.0085331251440849
2.5400000000000	-0.0086698840029366
2.5500000000000	-0.0088090241515912
2.5600000000000	-0.0089505587297550
2.5700000000000	-0.0090945014703905
2.5800000000000	-0.0092408667119843
2.5900000000000	-0.0093896694107484
2.6000000000000	-0.0095409251532719
2.6100000000000	-0.0096946501694865
2.6200000000000	-0.0098508613459025
2.6300000000000	-0.010009576239180
2.6400000000000	-0.010170813090128
2.6500000000000	-0.010334590837932
2.6600000000000	-0.010500929134836
2.6700000000000	-0.010669848361212
2.6800000000000	-0.010841369640830
2.6900000000000	-0.011015514856803
2.7000000000000	-0.011192306667776
2.7100000000000	-0.011371768524497
2.7200000000000	-0.011553924686969
2.7300000000000	-0.011738800241890
2.7400000000000	-0.011926421120717
2.7500000000000	-0.012116814118011
2.7600000000000	-0.012310006910485
2.7700000000000	-0.012506028076379
2.7800000000000	-0.012704907115446
2.7900000000000	-0.012906674469454
2.8000000000000	-0.013111361543220
2.8100000000000	-0.013319000726278
2.8200000000000	-0.013529625415023
2.8300000000000	-0.013743270035562
2.8400000000000	-0.013959970067153
2.8500000000000	-0.014179762066266
2.8600000000000	-0.014402683691340
2.8700000000000	-0.014628773728208
2.8800000000000	-0.014858072116229
2.8900000000000	-0.015090619975151
2.9000000000000	-0.015326459632732
2.9100000000000	-0.015565634653118
2.9200000000000	-0.015808189866040
2.9300000000000	-0.016054171396835
2.9400000000000	-0.016303626697296
2.9500000000000	-0.016556604577434
2.9600000000000	-0.016813155238131
2.9700000000000	-0.017073330304707
2.9800000000000	-0.017337182861528
2.9900000000000	-0.017604767487520
3.0000000000000	-0.017876140292748
3.0100000000000	-0.018151358956138
3.0200000000000	-0.018430482764180
3.0300000000000	-0.018713572650775
3.0400000000000	-0.019000691238417
3.0500000000000	-0.019291902880338
3.0600000000000	-0.019587273704123
3.0700000000000	-0.019886871656519
3.0800000000000	-0.020190766549578
3.0900000000000	-0.020499030108144
3.1000000000000	-0.020811736018938
3.1100000000000	-0.021128959980926
3.1200000000000	-0.021450779757291
3.1300000000000	-0.021777275228993
3.1400000000000	-0.022108528449956
3.1500000000000	-0.022444623703920
3.1600000000000	-0.022785647563094
3.1700000000000	-0.023131688948455
3.1800000000000	-0.023482839192182
3.1900000000000	-0.023839192101721
3.2000000000000	-0.024200844026101
3.2100000000000	-0.024567893924119
3.2200000000000	-0.024940443434829
3.2300000000000	-0.025318596950073
3.2400000000000	-0.025702461689524
3.2500000000000	-0.026092147777767
3.2600000000000	-0.026487768324312
3.2700000000000	-0.026889439505507
3.2800000000000	-0.027297280649761
3.2900000000000	-0.027711414325126
3.3000000000000	-0.028131966429480
3.3100000000000	-0.028559066284294
3.3200000000000	-0.028992846730693
3.3300000000000	-0.029433444229134
3.3400000000000	-0.029880998962267
3.3500000000000	-0.030335654940926
3.3600000000000	-0.030797560113878
3.3700000000000	-0.031266866480968
3.3800000000000	-0.031743730210292
3.3900000000000	-0.032228311758956
3.4000000000000	-0.032720775997989
3.4100000000000	-0.033221292341567
3.4200000000000	-0.033730034880310
3.4300000000000	-0.034247182519327
3.4400000000000	-0.034772919120724
3.4500000000000	-0.035307433651115
3.4600000000000	-0.035850920334027
3.4700000000000	-0.036403578807597
3.4800000000000	-0.036965614287556
3.4900000000000	-0.037537237736115
3.5000000000000	-0.038118666036297
3.5100000000000	-0.038710122172543
3.5200000000000	-0.039311835417675
3.5300000000000	-0.039924041526086
3.5400000000000	-0.040546982934142
3.5500000000000	-0.041180908967081
3.5600000000000	-0.041826076053824
3.5700000000000	-0.042482747948834
3.5800000000000	-0.043151195962350
3.5900000000000	-0.043831699198497
3.6000000000000	-0.044524544802079
3.6100000000000	-0.045230028214113
3.6200000000000	-0.045948453437116
3.6300000000000	-0.046680133308874
3.6400000000000	-0.047425389787566
3.6500000000000	-0.048184554246254
3.6600000000000	-0.048957967778572
3.6700000000000	-0.049745981515614
3.6800000000000	-0.050548956954560
3.6900000000000	-0.051367266299406
3.7000000000000	-0.052201292814579
3.7100000000000	-0.053051431191182
3.7200000000000	-0.053918087927712
3.7300000000000	-0.054801681724737
3.7400000000000	-0.055702643894328
3.7500000000000	-0.056621418785386
3.7600000000000	-0.057558464224890
3.7700000000000	-0.058514251976137
3.7800000000000	-0.059489268214429
3.7900000000000	-0.060484014021320
3.8000000000000	-0.061499005897761
3.8100000000000	-0.062534776297244
3.8200000000000	-0.063591874179567
3.8300000000000	-0.064670865586755
3.8400000000000	-0.065772334240866
3.8500000000000	-0.066896882166126
3.8600000000000	-0.068045130335012
3.8700000000000	-0.069217719340688
3.8800000000000	-0.070415310095517
3.8900000000000	-0.071638584558478
3.9000000000000	-0.072888246490929
3.9100000000000	-0.074165022243417
3.9200000000000	-0.075469661574572
3.9300000000000	-0.076802938502687
3.9400000000000	-0.078165652192711
3.9500000000000	-0.079558627879512
3.9600000000000	-0.080982717828961
3.9700000000000	-0.082438802338952
3.9800000000000	-0.083927790782372
3.9900000000000	-0.085450622692761
4.0000000000000	-0.087008268896283
4.0100000000000	-0.088601732690920
4.0200000000000	-0.090232051075445
4.0300000000000	-0.091900296030732
4.0400000000000	-0.093607575855619
4.0500000000000	-0.095355036559460
4.0600000000000	-0.097143863315506
4.0700000000000	-0.098975281975606
4.0800000000000	-0.10085056065173
4.0900000000000	-0.10277101136543
4.1000000000000	-0.10473799176998
4.1100000000000	-0.10675290694731
4.1200000000000	-0.10881721128487
4.1300000000000	-0.11093241043478
4.1400000000000	-0.11310006336048
4.1500000000000	-0.11532178447436
4.1600000000000	-0.11759924587126
4.1700000000000	-0.11993417966207
4.1800000000000	-0.12232838041351
4.1900000000000	-0.12478370769741
4.2000000000000	-0.12730208875709
4.2100000000000	-0.12988552129495
4.2200000000000	-0.13253607638841
4.2300000000000	-0.13525590154052
4.2400000000000	-0.13804722387091
4.2500000000000	-0.14091235345630
4.2600000000000	-0.14385368682621
4.2700000000000	-0.14687371062256
4.2800000000000	-0.14997500543210
4.2900000000000	-0.15316024979940
4.3000000000000	-0.15643222443071
4.3100000000000	-0.15979381659811
4.3200000000000	-0.16324802475459
4.3300000000000	-0.16679796337038
4.3400000000000	-0.17044686800354
4.3500000000000	-0.17419810061552
4.3600000000000	-0.17805515514562
4.3700000000000	-0.18202166335750
4.3800000000000	-0.18610140097293
4.3900000000000	-0.19029829410676
4.4000000000000	-0.19461642602084
4.4100000000000	-0.19906004421235
4.4200000000000	-0.20363356785571
4.4300000000000	-0.20834159561656
4.4400000000000	-0.21318891385813
4.4500000000000	-0.21818050526109
4.4600000000000	-0.22332155787916
4.4700000000000	-0.22861747465530
4.4800000000000	-0.23407388342190
4.4900000000000	-0.23969664741316
4.5000000000000	-0.24549187631672
4.5100000000000	-0.25146593789461
4.5200000000000	-0.25762547020495
4.5300000000000	-0.26397739445743
4.5400000000000	-0.27052892853793
4.5500000000000	-0.27728760123904
4.5600000000000	-0.28426126723615
4.5700000000000	-0.29145812285017
4.5800000000000	-0.29888672264120
4.5900000000000	-0.30655599687890
4.6000000000000	-0.31447526993938
4.6100000000000	-0.32265427967956
4.6200000000000	-0.33110319784429
4.6300000000000	-0.33983265156383
4.6400000000000	-0.34885374600271
4.6500000000000	-0.35817808822447
4.6600000000000	-0.36781781234040
4.6700000000000	-0.37778560601410
4.6800000000000	-0.38809473839764
4.6900000000000	-0.39875908957923
4.7000000000000	-0.40979318162658
4.7100000000000	-0.42121221131538
4.7200000000000	-0.43303208463540
4.7300000000000	-0.44526945317382
4.7400000000000	-0.45794175247876
4.7500000000000	-0.47106724251241
4.7600000000000	-0.48466505030803
4.7700000000000	-0.49875521495155
4.7800000000000	-0.51335873501370
4.7900000000000	-0.52849761856534
4.8000000000000	-0.54419493591456
4.8100000000000	-0.56047487521083
4.8200000000000	-0.57736280106797
4.8300000000000	-0.59488531636429
4.8400000000000	-0.61307032738549
4.8500000000000	-0.63194711248206
4.8600000000000	-0.65154639442069
4.8700000000000	-0.67190041661519
4.8800000000000	-0.69304302342981
4.8900000000000	-0.71500974475443
4.9000000000000	-0.73783788505715
4.9100000000000	-0.76156661712684
4.9200000000000	-0.78623708072324
4.9300000000000	-0.81189248635848
4.9400000000000	-0.83857822443846
4.9500000000000	-0.86634197999706
4.9600000000000	-0.89523385326019
4.9700000000000	-0.92530648627929
4.9800000000000	-0.95661519587638
4.9900000000000	-0.98921811314389
5.0000000000000	-1.0231763297425
5.0100000000000	-1.0585540512397
5.0200000000000	-1.0954187577289
5.0300000000000	-1.1338413719675
5.0400000000000	-1.1738964352650
5.0500000000000	-1.2156622913504
5.0600000000000	-1.2592212784387
5.0700000000000	-1.3046599297121
5.0800000000000	-1.3520691824212
5.0900000000000	-1.4015445958073
5.1000000000000	-1.4531865780392
5.1100000000000	-1.5071006223527
5.1200000000000	-1.5633975525795
5.1300000000000	-1.6221937782548
5.1400000000000	-1.6836115595001
5.1500000000000	-1.7477792818919
5.1600000000000	-1.8148317415553
5.1700000000000	-1.8849104407572
5.1800000000000	-1.9581638943333
5.1900000000000	-2.0347479473551
5.2000000000000	-2.1148261045497
5.2100000000000	-2.1985698721155
5.2200000000000	-2.2861591127512
5.2300000000000	-2.3777824149310
5.2400000000000	-2.4736374777310
5.2500000000000	-2.5739315128421
5.2600000000000	-2.6788816658163
5.2700000000000	-2.7887154590800
5.2800000000000	-2.9036712598363
5.2900000000000	-3.0239987766759
5.3000000000000	-3.1499595895353
5.3100000000000	-3.2818277185909
5.3200000000000	-3.4198902387899
5.3300000000000	-3.5644479479755
5.3400000000000	-3.7158160980061
5.3500000000000	-3.8743251998840
5.3600000000000	-4.0403219157039
5.3700000000000	-4.2141700522093
5.3800000000000	-4.3962516728716
5.3900000000000	-4.5869683476680
5.4000000000000	-4.7867425620478
5.4100000000000	-4.9960193088647
5.4200000000000	-5.2152678891408
5.4300000000000	-5.4449839491879
5.4400000000000	-5.6856917824734
5.4500000000000	-5.9379469241216
5.4600000000000	-6.2023390632493
5.4700000000000	-6.4794952921785
5.4800000000000	-6.7700837000218
5.4900000000000	-7.0748172982917
5.5000000000000	-7.3944582336120
5.5100000000000	-7.7298221905500
5.5200000000000	-8.0817828057065
5.5300000000000	-8.4512757865599
5.5400000000000	-8.8393022306007
5.5500000000000	-9.2469303338692
5.5600000000000	-9.6752942038525
5.5700000000000	-10.125587757406
5.5800000000000	-10.599050546104
5.5900000000000	-11.096940586193
5.6000000000000	-11.620486536427
5.6100000000000	-12.170807352395
5.6200000000000	-12.748781117217
5.6300000000000	-13.354835147576
5.6400000000000	-13.988615708506
5.6500000000000	-14.648477478270
5.6600000000000	-15.330712995293
5.6700000000000	-16.028431913418
5.6800000000000	-16.730030245170
5.6900000000000	-17.417329872107
5.7000000000000	-18.063831993273
5.7100000000000	-18.634199503817
5.7200000000000	-19.086831420022
5.7300000000000	-19.381221069263
5.7400000000000	-19.489256042720
5.7500000000000	-19.405292713565
5.7600000000000	-19.148358636872
5.7700000000000	-18.754842979557
5.7800000000000	-18.266874221448
5.7900000000000	-17.722895482552
5.8000000000000	-17.153132972460
5.8100000000000	-16.579025233670
5.8200000000000	-16.014621259492
5.8300000000000	-15.468479162820
5.8400000000000	-14.945365966143
5.8500000000000	-14.447554913084
5.8600000000000	-13.975738416825
5.8700000000000	-13.529641581415
5.8800000000000	-13.108422958336
5.8900000000000	-12.710931222280
5.9000000000000	-12.335866858071
5.9100000000000	-11.981882192860
5.9200000000000	-11.647641801193
5.9300000000000	-11.331857629355
5.9400000000000	-11.033308112029
5.9500000000000	-10.750847251608
5.9600000000000	-10.483407495275
5.9700000000000	-10.229998868071
5.9800000000000	-9.9897059325529
5.9900000000000	-9.7616835729426
6.0000000000000	-9.5451522319311
6.0100000000000	-9.3393929894373
6.0200000000000	-9.1437427185465
6.0300000000000	-8.9575894547501
6.0400000000000	-8.7803680512666
6.0500000000000	-8.6115561531772
6.0600000000000	-8.4506704982230
6.0700000000000	-8.2972635370945
6.0800000000000	-8.1509203574033
6.0900000000000	-8.0112558909941
6.1000000000000	-7.8779123823201
6.1100000000000	-7.7505570952905
6.1200000000000	-7.6288802366577
6.1300000000000	-7.5125930752194
6.1400000000000	-7.4014262376120
6.1500000000000	-7.2951281630713
6.1600000000000	-7.1934637011532
6.1700000000000	-7.0962128379554
6.1800000000000	-7.0031695378414
6.1900000000000	-6.9141406890103
6.2000000000000	-6.8289451424863
6.2100000000000	-6.7474128352052
6.2200000000000	-6.6693839888778
6.2300000000000	-6.5947083771970
6.2400000000000	-6.5232446547520
6.2500000000000	-6.4548597417225
6.2600000000000	-6.3894282590522
6.2700000000000	-6.3268320093618
6.2800000000000	-6.2669594993565
6.2900000000000	-6.2097054999239
6.3000000000000	-6.1549706405086
6.3100000000000	-6.1026610346989
6.3200000000000	-6.0526879342670
6.3300000000000	-6.0049674091814
6.3400000000000	-5.9594200513542
6.3500000000000	-5.9159707001020
6.3600000000000	-5.8745481874974
6.3700000000000	-5.8350851019591
6.3800000000000	-5.7975175685842
6.3900000000000	-5.7617850448675
6.4000000000000	-5.7278301305748
6.4100000000000	-5.6955983906509
6.4200000000000	-5.6650381901434
6.4300000000000	-5.6361005402126
6.4400000000000	-5.6087389543815
6.4500000000000	-5.5829093142522
6.4600000000000	-5.5585697439799
6.4700000000000	-5.5356804928600
6.4800000000000	-5.5142038254331
6.4900000000000	-5.4941039185659
6.5000000000000	-5.4753467650077
6.5100000000000	-5.4579000829655
6.5200000000000	-5.4417332312753
6.5300000000000	-5.4268171297816
6.5400000000000	-5.4131241845684
6.5500000000000	-5.4006282177115
6.5600000000000	-5.3893044012481
6.5700000000000	-5.3791291950835
6.5800000000000	-5.3700802885746
6.5900000000000	-5.3621365455506
6.6000000000000	-5.3552779525490
6.6100000000000	-5.3494855700598
6.6200000000000	-5.3447414865893
6.6300000000000	-5.3410287753640
6.6400000000000	-5.3383314535122
6.6500000000000	-5.3366344435705
6.6600000000000	-5.3359235371725
6.6700000000000	-5.3361853607882
6.6800000000000	-5.3374073433928
6.6900000000000	-5.3395776859484
6.7000000000000	-5.3426853325938
6.7100000000000	-5.3467199434430
6.7200000000000	-5.3516718689000
6.7300000000000	-5.3575321254024
6.7400000000000	-5.3642923725164
6.7500000000000	-5.3719448913040
6.7600000000000	-5.3804825638962
6.7700000000000	-5.3898988542036
6.7800000000000	-5.4001877897055
6.7900000000000	-5.4113439442579
6.8000000000000	-5.4233624218695
6.8100000000000	-5.4362388413932
6.8200000000000	-5.4499693220880
6.8300000000000	-5.4645504700066
6.8400000000000	-5.4799793651684
6.8500000000000	-5.4962535494784
6.8600000000000	-5.5133710153577
6.8700000000000	-5.5313301950509
6.8800000000000	-5.5501299505801
6.8900000000000	-5.5697695643144
6.9000000000000	-5.5902487301306
6.9100000000000	-5.6115675451358
6.9200000000000	-5.6337265019315
6.9300000000000	-5.6567264813951
6.9400000000000	-5.6805687459581
6.9500000000000	-5.7052549333633
6.9600000000000	-5.7307870508813
6.9700000000000	-5.7571674699712
6.9800000000000	-5.7843989213699
6.9900000000000	-5.8124844905948
7.0000000000000	-5.8414276138499
7.0100000000000	-5.8712320743192
7.0200000000000	-5.9019019988417
7.0300000000000	-5.9334418549532
7.0400000000000	-5.9658564482906
7.0500000000000	-5.9991509203478
7.0600000000000	-6.0333307465779
7.0700000000000	-6.0684017348359
7.0800000000000	-6.1043700241554
7.0900000000000	-6.1412420838572
7.1000000000000	-6.1790247129849
7.1100000000000	-6.2177250400655
7.1200000000000	-6.2573505231946
7.1300000000000	-6.2979089504432
7.1400000000000	-6.3394084405886
7.1500000000000	-6.3818574441683
7.1600000000000	-6.4252647448609
7.1700000000000	-6.4696394611947
7.1800000000000	-6.5149910485889
7.1900000000000	-6.5613293017311
7.2000000000000	-6.6086643572976
7.2100000000000	-6.6570066970217
7.2200000000000	-6.7063671511175
7.2300000000000	-6.7567569020685
7.2400000000000	-6.8081874887891
7.2500000000000	-6.8606708111705
7.2600000000000	-6.9142191350212
7.2700000000000	-6.9688450974165
7.2800000000000	-7.0245617124691
7.2900000000000	-7.0813823775371
7.3000000000000	-7.1393208798855
7.3100000000000	-7.1983914038185
7.3200000000000	-7.2586085383029
7.3300000000000	-7.3199872851022
7.3400000000000	-7.3825430674444
7.3500000000000	-7.4462917392475
7.3600000000000	-7.5112495949284
7.3700000000000	-7.5774333798227
7.3800000000000	-7.6448603012458
7.3900000000000	-7.7135480402256
7.4000000000000	-7.7835147639436
7.4100000000000	-7.8547791389169
7.4200000000000	-7.9273603449644
7.4300000000000	-8.0012780899949
7.4400000000000	-8.0765526256650
7.4500000000000	-8.1532047639519
7.4600000000000	-8.2312558946934
7.4700000000000	-8.3107280041486
7.4800000000000	-8.3916436946386
7.4900000000000	-8.4740262053274
7.5000000000000	-8.5578994342118
7.5100000000000	-8.6432879613887
7.5200000000000	-8.7302170736776
7.5300000000000	-8.8187127906782
7.5400000000000	-8.9088018923507
7.5500000000000	-9.0005119482106
7.5600000000000	-9.0938713482386
7.5700000000000	-9.1889093356100
7.5800000000000	-9.2856560413595
7.5900000000000	-9.3841425211018
7.6000000000000	-9.4844007939390
7.6100000000000	-9.5864638836943
7.6200000000000	-9.6903658626231
7.6300000000000	-9.7961418977606
7.6400000000000	-9.9038283000798
