#Parameters = {d=1; g=0.5; h=2.4; l=6; m=3; p=0.5; phi=0; s=1; t=0.035; theta=0; w=7}
#"Frequency / GHz"	"SZmax(1),Zmax(1) (s=1) [Magnitude]"
#------------------------------------------------------
2.0000000000000	-0.0044813090037487
2.0100000000000	-0.0045365239124691
2.0200000000000	-0.0045929332842212
2.0300000000000	-0.0046505413709099
2.0400000000000	-0.0047093527644971
2.0500000000000	-0.0047693724000863
2.0600000000000	-0.0048306055591645
2.0700000000000	-0.0048930578728911
2.0800000000000	-0.0049567353255905
2.0900000000000	-0.0050216442582670
2.1000000000000	-0.0050877913723097
2.1100000000000	-0.0051551837332935
2.1200000000000	-0.0052238287748902
2.1300000000000	-0.0052937343029898
2.1400000000000	-0.0053649084998183
2.1500000000000	-0.0054373599283135
2.1600000000000	-0.0055110975366400
2.1700000000000	-0.0055861306627616
2.1800000000000	-0.0056624690391776
2.1900000000000	-0.0057401227979376
2.2000000000000	-0.0058191024756738
2.2100000000000	-0.0058994190188672
2.2200000000000	-0.0059810837891730
2.2300000000000	-0.0060641085691519
2.2400000000000	-0.0061485055678898
2.2500000000000	-0.0062342874269798
2.2600000000000	-0.0063214672267226
2.2700000000000	-0.0064100584922546
2.2800000000000	-0.0065000752002481
2.2900000000000	-0.0065915317855167
2.3000000000000	-0.0066844431478797
2.3100000000000	-0.0067788246594184
2.3200000000000	-0.0068746921717767
2.3300000000000	-0.0069720620236255
2.3400000000000	-0.0070709510485820
2.3500000000000	-0.0071713765831760
2.3600000000000	-0.0072733564752121
2.3700000000000	-0.0073769090922062
2.3800000000000	-0.0074820533301871
2.3900000000000	-0.0075888086227696
2.4000000000000	-0.0076971949505452
2.4100000000000	-0.0078072328504994
2.4200000000000	-0.0079189434261486
2.4300000000000	-0.0080323483575542
2.4400000000000	-0.0081474699118278
2.4500000000000	-0.0082643309540503
2.4600000000000	-0.0083829549583627
2.4700000000000	-0.0085033660193459
2.4800000000000	-0.0086255888639235
2.4900000000000	-0.0087496488634960
2.5000000000000	-0.0088755720465026
2.5100000000000	-0.0090033851112897
2.5200000000000	-0.0091331154393802
2.5300000000000	-0.0092647911091863
2.5400000000000	-0.0093984409100908
2.5500000000000	-0.0095340943569548
2.5600000000000	-0.0096717817051382
2.5700000000000	-0.0098115339657584
2.5800000000000	-0.0099533829216551
2.5900000000000	-0.010097361143706
2.6000000000000	-0.010243502007606
2.6100000000000	-0.010391839711209
2.6200000000000	-0.010542409292386
2.6300000000000	-0.010695246647381
2.6400000000000	-0.010850388549754
2.6500000000000	-0.011007872669899
2.6600000000000	-0.011167737595092
2.6700000000000	-0.011330022850210
2.6800000000000	-0.011494768919105
2.6900000000000	-0.011662017266406
2.7000000000000	-0.011831810360321
2.7100000000000	-0.012004191695845
2.7200000000000	-0.012179205818816
2.7300000000000	-0.012356898350678
2.7400000000000	-0.012537316013946
2.7500000000000	-0.012720506658508
2.7600000000000	-0.012906519288701
2.7700000000000	-0.013095404091235
2.7800000000000	-0.013287212463978
2.7900000000000	-0.013481997045556
2.8000000000000	-0.013679811745934
2.8100000000000	-0.013880711777957
2.8200000000000	-0.014084753689808
2.8300000000000	-0.014291995398427
2.8400000000000	-0.014502496224148
2.8500000000000	-0.014716316926222
2.8600000000000	-0.014933519739538
2.8700000000000	-0.015154168412433
2.8800000000000	-0.015378328245798
2.8900000000000	-0.015606066133292
2.9000000000000	-0.015837450602852
2.9100000000000	-0.016072551859552
2.9200000000000	-0.016311441829776
2.9300000000000	-0.016554194206814
2.9400000000000	-0.016800884497868
2.9500000000000	-0.017051590072587
2.9600000000000	-0.017306390213176
2.9700000000000	-0.017565366166001
2.9800000000000	-0.017828601195009
2.9900000000000	-0.018096180636725
3.0000000000000	-0.018368191957087
3.0100000000000	-0.018644724810128
3.0200000000000	-0.018925871098516
3.0300000000000	-0.019211725036128
3.0400000000000	-0.019502383212595
3.0500000000000	-0.019797944660007
3.0600000000000	-0.020098510921783
3.0700000000000	-0.020404186123832
3.0800000000000	-0.020715077048026
3.0900000000000	-0.021031293208141
3.1000000000000	-0.021352946928301
3.1100000000000	-0.021680153424026
3.1200000000000	-0.022013030886025
3.1300000000000	-0.022351700566749
3.1400000000000	-0.022696286869893
3.1500000000000	-0.023046917442905
3.1600000000000	-0.023403723272609
3.1700000000000	-0.023766838784098
3.1800000000000	-0.024136401942989
3.1900000000000	-0.024512554361164
3.2000000000000	-0.024895441406143
3.2100000000000	-0.025285212314220
3.2200000000000	-0.025682020307503
3.2300000000000	-0.026086022715014
3.2400000000000	-0.026497381097974
3.2500000000000	-0.026916261379499
3.2600000000000	-0.027342833978789
3.2700000000000	-0.027777273950071
3.2800000000000	-0.028219761126396
3.2900000000000	-0.028670480268575
3.3000000000000	-0.029129621219329
3.3100000000000	-0.029597379063011
3.3200000000000	-0.030073954290977
3.3300000000000	-0.030559552972902
3.3400000000000	-0.031054386934306
3.3500000000000	-0.031558673940427
3.3600000000000	-0.032072637886812
3.3700000000000	-0.032596508996849
3.3800000000000	-0.033130524026494
3.3900000000000	-0.033674926476508
3.4000000000000	-0.034229966812532
3.4100000000000	-0.034795902693275
3.4200000000000	-0.035372999207178
3.4300000000000	-0.035961529117889
3.4400000000000	-0.036561773118934
3.4500000000000	-0.037174020097878
3.4600000000000	-0.037798567410558
3.4700000000000	-0.038435721165562
3.4800000000000	-0.039085796519621
3.4900000000000	-0.039749117984176
3.5000000000000	-0.040426019743730
3.5100000000000	-0.041116845986416
3.5200000000000	-0.041821951247354
3.5300000000000	-0.042541700765227
3.5400000000000	-0.043276470852844
3.5500000000000	-0.044026649282049
3.5600000000000	-0.044792635683861
3.5700000000000	-0.045574841964210
3.5800000000000	-0.046373692736299
3.5900000000000	-0.047189625769946
3.6000000000000	-0.048023092458994
3.6100000000000	-0.048874558307310
3.6200000000000	-0.049744503434453
3.6300000000000	-0.050633423101623
3.6400000000000	-0.051541828259032
3.6500000000000	-0.052470246115533
3.6600000000000	-0.053419220731535
3.6700000000000	-0.054389313636282
3.6800000000000	-0.055381104470563
3.6900000000000	-0.056395191656121
3.7000000000000	-0.057432193092797
3.7100000000000	-0.058492746884916
3.7200000000000	-0.059577512098095
3.7300000000000	-0.060687169547970
3.7400000000000	-0.061822422622341
3.7500000000000	-0.062983998138236
3.7600000000000	-0.064172647235632
3.7700000000000	-0.065389146309501
3.7800000000000	-0.066634297982045
3.7900000000000	-0.067908932116997
3.8000000000000	-0.069213906878088
3.8100000000000	-0.070550109833710
3.8200000000000	-0.071918459110061
3.8300000000000	-0.073319904595206
3.8400000000000	-0.074755429196340
3.8500000000000	-0.076226050153137
3.8600000000000	-0.077732820409690
3.8700000000000	-0.079276830048140
3.8800000000000	-0.080859207786951
3.8900000000000	-0.082481122547101
3.9000000000000	-0.084143785089637
3.9100000000000	-0.085848449728077
3.9200000000000	-0.087596416119627
3.9300000000000	-0.089389031139051
3.9400000000000	-0.091227690839558
3.9500000000000	-0.093113842505059
3.9600000000000	-0.095048986798642
3.9700000000000	-0.097034680012109
3.9800000000000	-0.099072536421970
3.9900000000000	-0.10116423075739
4.0000000000000	-0.10331150078594
4.0100000000000	-0.10551615002354
4.0200000000000	-0.10778005057492
4.0300000000000	-0.11010514611185
4.0400000000000	-0.11249345499622
4.0500000000000	-0.11494707355606
4.0600000000000	-0.11746817952249
4.0700000000000	-0.12005903563651
4.0800000000000	-0.12272199343481
4.0900000000000	-0.12545949722455
4.1000000000000	-0.12827408825718
4.1100000000000	-0.13116840911276
4.1200000000000	-0.13414520830603
4.1300000000000	-0.13720734512693
4.1400000000000	-0.14035779472850
4.1500000000000	-0.14359965347620
4.1600000000000	-0.14693614457343
4.1700000000000	-0.15037062397876
4.1800000000000	-0.15390658663185
4.1900000000000	-0.15754767300539
4.2000000000000	-0.16129767600208
4.2100000000000	-0.16516054821645
4.2200000000000	-0.16914040958282
4.2300000000000	-0.17324155543176
4.2400000000000	-0.17746846497918
4.2500000000000	-0.18182581027326
4.2600000000000	-0.18631846562650
4.2700000000000	-0.19095151756145
4.2800000000000	-0.19573027530085
4.2900000000000	-0.20066028183466
4.3000000000000	-0.20574732559872
4.3100000000000	-0.21099745280168
4.3200000000000	-0.21641698043973
4.3300000000000	-0.22201251004070
4.3400000000000	-0.22779094218202
4.3500000000000	-0.23375949183005
4.3600000000000	-0.23992570455102
4.3700000000000	-0.24629747364749
4.3800000000000	-0.25288305827749
4.3900000000000	-0.25969110261735
4.4000000000000	-0.26673065613319
4.4100000000000	-0.27401119503039
4.4200000000000	-0.28154264495473
4.4300000000000	-0.28933540502396
4.4400000000000	-0.29740037327358
4.4500000000000	-0.30574897360621
4.4600000000000	-0.31439318433968
4.4700000000000	-0.32334556845557
4.4800000000000	-0.33261930565605
4.4900000000000	-0.34222822634461
4.5000000000000	-0.35218684765336
4.5100000000000	-0.36251041164789
4.5200000000000	-0.37321492584906
4.5300000000000	-0.38431720622044
4.5400000000000	-0.39583492277955
4.5500000000000	-0.40778664800139
4.5600000000000	-0.42019190819369
4.5700000000000	-0.43307123803476
4.5800000000000	-0.44644623847704
4.5900000000000	-0.46033963823245
4.6000000000000	-0.47477535906899
4.6100000000000	-0.48977858516299
4.6200000000000	-0.50537583676569
4.6300000000000	-0.52159504845981
4.6400000000000	-0.53846565229753
4.6500000000000	-0.55601866612952
4.6600000000000	-0.57428678745276
4.6700000000000	-0.59330449312399
4.6800000000000	-0.61310814530570
4.6900000000000	-0.63373610403233
4.7000000000000	-0.65522884680565
4.7100000000000	-0.67762909565054
4.7200000000000	-0.70098195208536
4.7300000000000	-0.72533504048400
4.7400000000000	-0.75073866033115
4.7500000000000	-0.77724594789595
4.7600000000000	-0.80491304787406
4.7700000000000	-0.83379929557259
4.7800000000000	-0.86396741023682
4.7900000000000	-0.89548370014211
4.8000000000000	-0.92841828009819
4.8100000000000	-0.96284530203635
4.8200000000000	-0.99884319937292
4.8300000000000	-1.0364949458635
4.8400000000000	-1.0758883296838
4.8500000000000	-1.1171162434907
4.8600000000000	-1.1602769912383
4.8700000000000	-1.2054746125360
4.8800000000000	-1.2528192253562
4.8900000000000	-1.3024273879118
4.9000000000000	-1.3544224805383
4.9100000000000	-1.4089351084349
4.9200000000000	-1.4661035261317
4.9300000000000	-1.5260740845784
4.9400000000000	-1.5890017017742
4.9500000000000	-1.6550503578986
4.9600000000000	-1.7243936159564
4.9700000000000	-1.7972151690186
4.9800000000000	-1.8737094152415
4.9900000000000	-1.9540820619757
5.0000000000000	-2.0385507604518
5.0100000000000	-2.1273457727625
5.0200000000000	-2.2207106731618
5.0300000000000	-2.3189030860940
5.0400000000000	-2.4221954638598
5.0500000000000	-2.5308759074616
5.0600000000000	-2.6452490349492
5.0700000000000	-2.7656369025657
5.0800000000000	-2.8923799851795
5.0900000000000	-3.0258382239282
5.1000000000000	-3.1663921507297
5.1100000000000	-3.3144441013525
5.1200000000000	-3.4704195311279
5.1300000000000	-3.6347684501312
5.1400000000000	-3.8079669977678
5.1500000000000	-3.9905191801418
5.1600000000000	-4.1829587972821
5.1700000000000	-4.3858515911149
5.1800000000000	-4.5997976487463
5.1900000000000	-4.8254340987442
5.2000000000000	-5.0634381400065
5.2100000000000	-5.3145304424398
5.2200000000000	-5.5794789543910
5.2300000000000	-5.8591031410425
5.2400000000000	-6.1542786568359
5.2500000000000	-6.4659424172824
5.2600000000000	-6.7950979716658
5.2700000000000	-7.1428209731109
5.2800000000000	-7.5102643726509
5.2900000000000	-7.8986626918746
5.3000000000000	-8.3093342950573
5.3100000000000	-8.7436798915568
5.3200000000000	-9.2031744010191
5.3300000000000	-9.6893475649659
5.3400000000000	-10.203745902266
5.3500000000000	-10.747864175029
5.3600000000000	-11.323027524010
5.3700000000000	-11.930194494843
5.3800000000000	-12.569634558055
5.3900000000000	-13.240409807845
5.4000000000000	-13.939559881451
5.4100000000000	-14.660860592866
5.4200000000000	-15.393032183450
5.4300000000000	-16.117395960209
5.4400000000000	-16.805384469244
5.4500000000000	-17.417196238409
5.4600000000000	-17.904104736088
5.4700000000000	-18.217172868479
5.4800000000000	-18.321916407785
5.4900000000000	-18.211906254116
5.5000000000000	-17.911539414927
5.5100000000000	-17.465717567571
5.5200000000000	-16.924417873798
5.5300000000000	-16.331260419782
5.5400000000000	-15.718939026028
5.5500000000000	-15.109492214918
5.5600000000000	-14.516565763260
5.5700000000000	-13.947900245500
5.5800000000000	-13.407354415873
5.5900000000000	-12.896351850067
5.6000000000000	-12.414847874858
5.6100000000000	-11.961951290463
5.6200000000000	-11.536314313046
5.6300000000000	-11.136372480640
5.6400000000000	-10.760489386351
5.6500000000000	-10.407041766423
5.6600000000000	-10.074467528806
5.6700000000000	-9.7612909471288
5.6800000000000	-9.4661339380007
5.6900000000000	-9.1877189978702
5.7000000000000	-8.9248672776036
5.7100000000000	-8.6764939559192
5.7200000000000	-8.4416022452882
5.7300000000000	-8.2192768435239
5.7400000000000	-8.0086773170314
5.7500000000000	-7.8090316962919
5.7600000000000	-7.6196304358476
5.7700000000000	-7.4398208116113
5.7800000000000	-7.2690017799115
5.7900000000000	-7.1066192939236
5.8000000000000	-6.9521620568085
5.8100000000000	-6.8051576823414
5.8200000000000	-6.6651692301028
5.8300000000000	-6.5317920815246
5.8400000000000	-6.4046511240249
5.8500000000000	-6.2833982123578
5.8600000000000	-6.1677098786627
5.8700000000000	-6.0572852652331
5.8800000000000	-5.9518442565410
5.8900000000000	-5.8511257894701
5.9000000000000	-5.7548863229482
5.9100000000000	-5.6628984502247
5.9200000000000	-5.5749496388915
5.9300000000000	-5.4908410854100
5.9400000000000	-5.4103866723861
5.9500000000000	-5.3334120181519
5.9600000000000	-5.2597536093769
5.9700000000000	-5.1892580084593
5.9800000000000	-5.1217811283588
5.9900000000000	-5.0571875683313
6.0000000000000	-4.9953500047353
6.0100000000000	-4.9361486317050
6.0200000000000	-4.8794706470336
6.0300000000000	-4.8252097791031
6.0400000000000	-4.7732658511237
6.0500000000000	-4.7235443793317
6.0600000000000	-4.6759562021327
6.0700000000000	-4.6304171374782
6.0800000000000	-4.5868476660308
6.0900000000000	-4.5451726379138
6.1000000000000	-4.5053210010515
6.1100000000000	-4.4672255492966
6.1200000000000	-4.4308226887128
6.1300000000000	-4.3960522205288
6.1400000000000	-4.3628571394216
6.1500000000000	-4.3311834459020
6.1600000000000	-4.3009799716934
6.1700000000000	-4.2721982170857
6.1800000000000	-4.2447921993423
6.1900000000000	-4.2187183113129
6.2000000000000	-4.1939351894815
6.2100000000000	-4.1704035907423
6.2200000000000	-4.1480862772568
6.2300000000000	-4.1269479087986
6.2400000000000	-4.1069549420418
6.2500000000000	-4.0880755362937
6.2600000000000	-4.0702794652111
6.2700000000000	-4.0535380340793
6.2800000000000	-4.0378240022633
6.2900000000000	-4.0231115104733
6.3000000000000	-4.0093760125145
6.3100000000000	-3.9965942112144
6.3200000000000	-3.9847439982482
6.3300000000000	-3.9738043976000
6.3400000000000	-3.9637555124200
6.3500000000000	-3.9545784750549
6.3600000000000	-3.9462554000445
6.3700000000000	-3.9387693398944
6.3800000000000	-3.9321042434462
6.3900000000000	-3.9262449166817
6.4000000000000	-3.9211769858084
6.4100000000000	-3.9168868624838
6.4200000000000	-3.9133617110472
6.4300000000000	-3.9105894176362
6.4400000000000	-3.9085585610746
6.4500000000000	-3.9072583854238
6.4600000000000	-3.9066787741011
6.4700000000000	-3.9068102254708
6.4800000000000	-3.9076438298238
6.4900000000000	-3.9091712476640
6.5000000000000	-3.9113846892286
6.5100000000000	-3.9142768951707
6.5200000000000	-3.9178411183405
6.5300000000000	-3.9220711066038
6.5400000000000	-3.9269610866402
6.5500000000000	-3.9325057486693
6.5600000000000	-3.9387002320538
6.5700000000000	-3.9455401117338
6.5800000000000	-3.9530213854488
6.5900000000000	-3.9611404617065
6.6000000000000	-3.9698941484598
6.6100000000000	-3.9792796424575
6.6200000000000	-3.9892945192345
6.6300000000000	-3.9999367237104
6.6400000000000	-4.0112045613671
6.6500000000000	-4.0230966899783
6.6600000000000	-4.0356121118655
6.6700000000000	-4.0487501666547
6.6800000000000	-4.0625105245149
6.6900000000000	-4.0768931798528
6.7000000000000	-4.0918984454482
6.7100000000000	-4.1075269470089
6.7200000000000	-4.1237796181295
6.7300000000000	-4.1406576956368
6.7400000000000	-4.1581627153084
6.7500000000000	-4.1762965079490
6.7600000000000	-4.1950611958128
6.7700000000000	-4.2144591893582
6.7800000000000	-4.2344931843262
6.7900000000000	-4.2551661591296
6.8000000000000	-4.2764813725449
6.8100000000000	-4.2984423616980
6.8200000000000	-4.3210529403353
6.8300000000000	-4.3443171973730
6.8400000000000	-4.3682394957183
6.8500000000000	-4.3928244713557
6.8600000000000	-4.4180770326942
6.8700000000000	-4.4440023601696
6.8800000000000	-4.4706059060984
6.8900000000000	-4.4978933947795
6.9000000000000	-4.5258708228411
6.9100000000000	-4.5545444598300
6.9200000000000	-4.5839208490415
6.9300000000000	-4.6140068085896
6.9400000000000	-4.6448094327152
6.9500000000000	-4.6763360933337
6.9600000000000	-4.7085944418219
6.9700000000000	-4.7415924110449
6.9800000000000	-4.7753382176256
6.9900000000000	-4.8098403644575
7.0000000000000	-4.8451076434653
7.0100000000000	-4.8811491386158
7.0200000000000	-4.9179742291831
7.0300000000000	-4.9555925932733
7.0400000000000	-4.9940142116140
7.0500000000000	-5.0332493716140
7.0600000000000	-5.0733086717016
7.0700000000000	-5.1142030259469
7.0800000000000	-5.1559436689788
7.0900000000000	-5.1985421612036
7.1000000000000	-5.2420103943378
7.1100000000000	-5.2863605972627
7.1200000000000	-5.3316053422167
7.1300000000000	-5.3777575513349
7.1400000000000	-5.4248305035510
7.1500000000000	-5.4728378418780
7.1600000000000	-5.5217935810815
7.1700000000000	-5.5717121157651
7.1800000000000	-5.6226082288855
7.1900000000000	-5.6744971007186
7.2000000000000	-5.7273943182967
7.2100000000000	-5.7813158853425
7.2200000000000	-5.8362782327227
7.2300000000000	-5.8922982294487
7.2400000000000	-5.9493931942540
7.2500000000000	-6.0075809077777
7.2600000000000	-6.0668796253885
7.2700000000000	-6.1273080906825
7.2800000000000	-6.1888855496947
7.2900000000000	-6.2516317658635
7.3000000000000	-6.3155670357918
7.3100000000000	-6.3807122058502
7.3200000000000	-6.4470886896739
7.3300000000000	-6.5147184866040
7.3400000000000	-6.5836242011324
7.3500000000000	-6.6538290634094
7.3600000000000	-6.7253569508804
7.3700000000000	-6.7982324111214
7.3800000000000	-6.8724806859482
7.3900000000000	-6.9481277368800
7.4000000000000	-7.0252002720428
7.4100000000000	-7.1037257746063
7.4200000000000	-7.1837325328531
7.4300000000000	-7.2652496719858
7.4400000000000	-7.3483071877883
7.4500000000000	-7.4329359822623
7.4600000000000	-7.5191679013727
7.4700000000000	-7.6070357750428
7.4800000000000	-7.6965734595526
7.4900000000000	-7.7878158825042
7.5000000000000	-7.8807990905319
7.5100000000000	-7.9755602999463
7.5200000000000	-8.0721379505193
7.5300000000000	-8.1705717626289
7.5400000000000	-8.2709027980051
7.5500000000000	-8.3731735243313
7.5600000000000	-8.4774278839807
7.5700000000000	-8.5837113671861
7.5800000000000	-8.6920710899680
7.5900000000000	-8.8025558771676
7.6000000000000	-8.9152163509661
7.6100000000000	-9.0301050252940
7.6200000000000	-9.1472764065742
7.6300000000000	-9.2667871012743
7.6400000000000	-9.3886959307829
7.6500000000000	-9.5130640541671
