#Parameters = {d=1; g=0.5; h=2.4; l=6; m=3; p=0.5; phi=0; s=1.1; t=0.035; theta=0; w=7}
#"Frequency / GHz"	"SZmax(1),Zmax(1) (s=1.1) [Magnitude]"
#--------------------------------------------------------
2.0000000000000	-0.0044945929502206
2.0100000000000	-0.0045379812979308
2.0200000000000	-0.0045828905835812
2.0300000000000	-0.0046293190038827
2.0400000000000	-0.0046772651301394
2.0500000000000	-0.0047267279108971
2.0600000000000	-0.0047777066750087
2.0700000000000	-0.0048302011340995
2.0800000000000	-0.0048842113855703
2.0900000000000	-0.0049397379158369
2.1000000000000	-0.0049967816034331
2.1100000000000	-0.0050553437223037
2.1200000000000	-0.0051154259448061
2.1300000000000	-0.0051770303456431
2.1400000000000	-0.0052401594055506
2.1500000000000	-0.0053048160144462
2.1600000000000	-0.0053710034759560
2.1700000000000	-0.0054387255107196
2.1800000000000	-0.0055079862610499
2.1900000000000	-0.0055787902951950
2.2000000000000	-0.0056511426109622
2.2100000000000	-0.0057250486412754
2.2200000000000	-0.0058005142580964
2.2300000000000	-0.0058775457774815
2.2400000000000	-0.0059561499644183
2.2500000000000	-0.0060363340382060
2.2600000000000	-0.0061181056780917
2.2700000000000	-0.0062014730271496
2.2800000000000	-0.0062864446999164
2.2900000000000	-0.0063730297872014
2.3000000000000	-0.0064612378616295
2.3100000000000	-0.0065510789847438
2.3200000000000	-0.0066425637126928
2.3300000000000	-0.0067357031027700
2.3400000000000	-0.0068305087216169
2.3500000000000	-0.0069269926491300
2.3600000000000	-0.0070251674891290
2.3700000000000	-0.0071250463738840
2.3800000000000	-0.0072266429740158
2.3900000000000	-0.0073299715042503
2.4000000000000	-0.0074350467328758
2.4100000000000	-0.0075418839901923
2.4200000000000	-0.0076504991759015
2.4300000000000	-0.0077609087689683
2.4400000000000	-0.0078731298364065
2.4500000000000	-0.0079871800427853
2.4600000000000	-0.0081030776591052
2.4700000000000	-0.0082208415742407
2.4800000000000	-0.0083404913036380
2.4900000000000	-0.0084620470010144
2.5000000000000	-0.0085855294686772
2.5100000000000	-0.0087109601685373
2.5200000000000	-0.0088383612342891
2.5300000000000	-0.0089677554825845
2.5400000000000	-0.0090991664255459
2.5500000000000	-0.0092326182837076
2.5600000000000	-0.0093681359985944
2.5700000000000	-0.0095057452457210
2.5800000000000	-0.0096454724489749
2.5900000000000	-0.0097873447948361
2.6000000000000	-0.0099313902460985
2.6100000000000	-0.010077637557733
2.6200000000000	-0.010226116292428
2.6300000000000	-0.010376856835584
2.6400000000000	-0.010529890412286
2.6500000000000	-0.010685249104894
2.6600000000000	-0.010842965868763
2.6700000000000	-0.011003074551749
2.6800000000000	-0.011165609911835
2.6900000000000	-0.011330607636531
2.7000000000000	-0.011498104362019
2.7100000000000	-0.011668137693227
2.7200000000000	-0.011840746225874
2.7300000000000	-0.012015969565877
2.7400000000000	-0.012193848353201
2.7500000000000	-0.012374424283096
2.7600000000000	-0.012557740130697
2.7700000000000	-0.012743839774369
2.7800000000000	-0.012932768220292
2.7900000000000	-0.013124571629465
2.8000000000000	-0.013319297341916
2.8100000000000	-0.013516993905838
2.8200000000000	-0.013717711104199
2.8300000000000	-0.013921499984325
2.8400000000000	-0.014128412887505
2.8500000000000	-0.014338503479030
2.8600000000000	-0.014551826780735
2.8700000000000	-0.014768439202621
2.8800000000000	-0.014988398576702
2.8900000000000	-0.015211764191822
2.9000000000000	-0.015438596829331
2.9100000000000	-0.015668958798924
2.9200000000000	-0.015902913977575
2.9300000000000	-0.016140527848108
2.9400000000000	-0.016381867539456
2.9500000000000	-0.016627001868179
2.9600000000000	-0.016876001381506
2.9700000000000	-0.017128938401335
2.9800000000000	-0.017385887069808
2.9900000000000	-0.017646923396148
3.0000000000000	-0.017912125305433
3.0100000000000	-0.018181572688579
3.0200000000000	-0.018455347453223
3.0300000000000	-0.018733533578492
3.0400000000000	-0.019016217168120
3.0500000000000	-0.019303486508729
3.0600000000000	-0.019595432127027
3.0700000000000	-0.019892146851354
3.0800000000000	-0.020193725873118
3.0900000000000	-0.020500266811834
3.1000000000000	-0.020811869781061
3.1100000000000	-0.021128637457185
3.1200000000000	-0.021450675150621
3.1300000000000	-0.021778090878246
3.1400000000000	-0.022110995439672
3.1500000000000	-0.022449502494849
3.1600000000000	-0.022793728644813
3.1700000000000	-0.023143793515122
3.1800000000000	-0.023499819841504
3.1900000000000	-0.023861933559456
3.2000000000000	-0.024230263895297
3.2100000000000	-0.024604943461657
3.2200000000000	-0.024986108355629
3.2300000000000	-0.025373898260131
3.2400000000000	-0.025768456548557
3.2500000000000	-0.026169930393572
3.2600000000000	-0.026578470879189
3.2700000000000	-0.026994233116473
3.2800000000000	-0.027417376363733
3.2900000000000	-0.027848064150465
3.3000000000000	-0.028286464405780
3.3100000000000	-0.028732749590993
3.3200000000000	-0.029187096837103
3.3300000000000	-0.029649688086963
3.3400000000000	-0.030120710242337
3.3500000000000	-0.030600355316207
3.3600000000000	-0.031088820590382
3.3700000000000	-0.031586308778747
3.3800000000000	-0.032093028196210
3.3900000000000	-0.032609192933610
3.4000000000000	-0.033135023039044
3.4100000000000	-0.033670744705532
3.4200000000000	-0.034216590465483
3.4300000000000	-0.034772799392100
3.4400000000000	-0.035339617308205
3.4500000000000	-0.035917297002531
3.4600000000000	-0.036506098453952
3.4700000000000	-0.037106289063897
3.4800000000000	-0.037718143897298
3.4900000000000	-0.038341945932427
3.5000000000000	-0.038977986319965
3.5100000000000	-0.039626564651696
3.5200000000000	-0.040287989239220
3.5300000000000	-0.040962577403071
3.5400000000000	-0.041650655772728
3.5500000000000	-0.042352560597903
3.5600000000000	-0.043068638071616
3.5700000000000	-0.043799244665574
3.5800000000000	-0.044544747478294
3.5900000000000	-0.045305524596579
3.6000000000000	-0.046081965470902
3.6100000000000	-0.046874471305254
3.6200000000000	-0.047683455462073
3.6300000000000	-0.048509343882987
3.6400000000000	-0.049352575525975
3.6500000000000	-0.050213602819566
3.6600000000000	-0.051092892135056
3.6700000000000	-0.051990924277340
3.6800000000000	-0.052908194995194
3.6900000000000	-0.053845215511913
3.7000000000000	-0.054802513077159
3.7100000000000	-0.055780631541100
3.7200000000000	-0.056780131951514
3.7300000000000	-0.057801593175227
3.7400000000000	-0.058845612544761
3.7500000000000	-0.059912806531540
3.7600000000000	-0.061003811446443
3.7700000000000	-0.062119284169478
3.7800000000000	-0.063259902909522
3.7900000000000	-0.064426367995630
3.8000000000000	-0.065619402701381
3.8100000000000	-0.066839754103811
3.8200000000000	-0.068088193978353
3.8300000000000	-0.069365519731750
3.8400000000000	-0.070672555374560
3.8500000000000	-0.072010152534925
3.8600000000000	-0.073379191516086
3.8700000000000	-0.074780582398983
3.8800000000000	-0.076215266192846
3.8900000000000	-0.077684216035496
3.9000000000000	-0.079188438445968
3.9100000000000	-0.080728974631957
3.9200000000000	-0.082306901854928
3.9300000000000	-0.083923334855156
3.9400000000000	-0.085579427340310
3.9500000000000	-0.087276373540196
3.9600000000000	-0.089015409831081
3.9700000000000	-0.090797816433182
3.9800000000000	-0.092624919184566
3.9900000000000	-0.094498091395773
4.0000000000000	-0.096418755788829
4.0100000000000	-0.098388386524980
4.0200000000000	-0.10040851132593
4.0300000000000	-0.10248071369259
4.0400000000000	-0.10460663522740
4.0500000000000	-0.10678797806445
4.0600000000000	-0.10902650741358
4.0700000000000	-0.11132405422427
4.0800000000000	-0.11368251797528
4.0900000000000	-0.11610386959694
4.1000000000000	-0.11859015453267
4.1100000000000	-0.12114349594740
4.1200000000000	-0.12376609809030
4.1300000000000	-0.12646024982036
4.1400000000000	-0.12922832830322
4.1500000000000	-0.13207280288830
4.1600000000000	-0.13499623917650
4.1700000000000	-0.13800130328791
4.1800000000000	-0.14109076634115
4.1900000000000	-0.14426750915531
4.2000000000000	-0.14753452718682
4.2100000000000	-0.15089493571407
4.2200000000000	-0.15435197528385
4.2300000000000	-0.15790901743321
4.2400000000000	-0.16156957070294
4.2500000000000	-0.16533728695827
4.2600000000000	-0.16921596803453
4.2700000000000	-0.17320957272536
4.2800000000000	-0.17732222413345
4.2900000000000	-0.18155821740406
4.3000000000000	-0.18592202786284
4.3100000000000	-0.19041831958161
4.3200000000000	-0.19505195439604
4.3300000000000	-0.19982800140143
4.3400000000000	-0.20475174695442
4.3500000000000	-0.20982870520941
4.3600000000000	-0.21506462922145
4.3700000000000	-0.22046552264785
4.3800000000000	-0.22603765208428
4.3900000000000	-0.23178756007219
4.4000000000000	-0.23772207881731
4.4100000000000	-0.24384834466091
4.4200000000000	-0.25017381334909
4.4300000000000	-0.25670627614692
4.4400000000000	-0.26345387684799
4.4500000000000	-0.27042512973326
4.4600000000000	-0.27762893853563
4.4700000000000	-0.28507461647085
4.4800000000000	-0.29277190739934
4.4900000000000	-0.30073100818662
4.5000000000000	-0.30896259233539
4.5100000000000	-0.31747783496606
4.5200000000000	-0.32628843922774
4.5300000000000	-0.33540666422674
4.5400000000000	-0.34484535456479
4.5500000000000	-0.35461797158557
4.5600000000000	-0.36473862643326
4.5700000000000	-0.37522211503436
4.5800000000000	-0.38608395511993
4.5900000000000	-0.39734042541307
4.6000000000000	-0.40900860711403
4.6100000000000	-0.42110642782336
4.6200000000000	-0.43365270805167
4.6300000000000	-0.44666721047421
4.6400000000000	-0.46017069209689
4.6500000000000	-0.47418495951123
4.6600000000000	-0.48873292742514
4.6700000000000	-0.50383868066812
4.6800000000000	-0.51952753987990
4.6900000000000	-0.53582613110428
4.7000000000000	-0.55276245952155
4.7100000000000	-0.57036598756579
4.7200000000000	-0.58866771768709
4.7300000000000	-0.60770028003162
4.7400000000000	-0.62749802532734
4.7500000000000	-0.64809712327727
4.7600000000000	-0.66953566677715
4.7700000000000	-0.69185378228942
4.7800000000000	-0.71509374672098
4.7900000000000	-0.73930011116746
4.8000000000000	-0.76451983190240
4.8100000000000	-0.79080240900521
4.8200000000000	-0.81820003303722
4.8300000000000	-0.84676774019005
4.8400000000000	-0.87656357634532
4.8500000000000	-0.90764877049879
4.8600000000000	-0.94008791801553
4.8700000000000	-0.97394917419501
4.8800000000000	-1.0093044586371
4.8900000000000	-1.0462296709096
4.9000000000000	-1.0848049180289
4.9100000000000	-1.1251147542706
4.9200000000000	-1.1672484338369
4.9300000000000	-1.2113001769107
4.9400000000000	-1.2573694496315
4.9500000000000	-1.3055612585341
4.9600000000000	-1.3559864599905
4.9700000000000	-1.4087620852044
4.9800000000000	-1.4640116813115
4.9900000000000	-1.5218656691470
5.0000000000000	-1.5824617182576
5.0100000000000	-1.6459451397558
5.0200000000000	-1.7124692976456
5.0300000000000	-1.7821960392957
5.0400000000000	-1.8552961457997
5.0500000000000	-1.9319498030547
5.0600000000000	-2.0123470945091
5.0700000000000	-2.0966885166938
5.0800000000000	-2.1851855188620
5.0900000000000	-2.2780610683388
5.1000000000000	-2.3755502435288
5.1100000000000	-2.4779008569745
5.1200000000000	-2.5853741114059
5.1300000000000	-2.6982452924021
5.1400000000000	-2.8168045021166
5.1500000000000	-2.9413574395223
5.1600000000000	-3.0722262338361
5.1700000000000	-3.2097503392142
5.1800000000000	-3.3542875004870
5.1900000000000	-3.5062148016557
5.2000000000000	-3.6659298111126
5.2100000000000	-3.8338518400832
5.2200000000000	-4.0104233336168
5.2300000000000	-4.1961114165302
5.2400000000000	-4.3914096199840
5.2500000000000	-4.5968398176944
5.2600000000000	-4.8129544039686
5.2700000000000	-5.0403387484325
5.2800000000000	-5.2796139639763
5.2900000000000	-5.5314400242237
5.3000000000000	-5.7965192634554
5.3100000000000	-6.0756002833819
5.3200000000000	-6.3694822744162
5.3300000000000	-6.6790197294015
5.3400000000000	-7.0051274778051
5.3500000000000	-7.3487858868273
5.3600000000000	-7.7110459449666
5.3700000000000	-8.0930337355410
5.3800000000000	-8.4959534786910
5.3900000000000	-8.9210878012321
5.4000000000000	-9.3697930745069
5.4100000000000	-9.8434863666515
5.4200000000000	-10.343618511133
5.4300000000000	-10.871624564200
5.4400000000000	-11.428837841555
5.4500000000000	-12.016345798132
5.4600000000000	-12.634753887592
5.4700000000000	-13.283805677409
5.4800000000000	-13.961783149169
5.4900000000000	-14.664583370141
5.5000000000000	-15.384351546517
5.5100000000000	-16.107590248420
5.5200000000000	-16.812862069752
5.5300000000000	-17.468727097946
5.5400000000000	-18.033514716187
5.5500000000000	-18.459479703807
5.5600000000000	-18.703188061623
5.5700000000000	-18.739735797755
5.5800000000000	-18.572796235255
5.5900000000000	-18.232993507021
5.6000000000000	-17.765898975461
5.6100000000000	-17.218208766170
5.6200000000000	-16.628941063177
5.6300000000000	-16.026643859070
5.6400000000000	-15.430302638830
5.6500000000000	-14.851570196935
5.6600000000000	-14.296994850979
5.6700000000000	-13.769778982721
5.6800000000000	-13.271023941891
5.6900000000000	-12.800561187025
5.7000000000000	-12.357488342415
5.7100000000000	-11.940507138283
5.7200000000000	-11.548132584820
5.7300000000000	-11.178819972570
5.7400000000000	-10.831040014458
5.7500000000000	-10.503321527683
5.7600000000000	-10.194273962888
5.7700000000000	-9.9025975559017
5.7800000000000	-9.6270860019745
5.7900000000000	-9.3666247329653
5.8000000000000	-9.1201867267865
5.8100000000000	-8.8868270494471
5.8200000000000	-8.6656768680165
5.8300000000000	-8.4559373800156
5.8400000000000	-8.2568739194812
5.8500000000000	-8.0678103832493
5.8600000000000	-7.8881240481107
5.8700000000000	-7.7172408045990
5.8800000000000	-7.5546308061892
5.8900000000000	-7.3998045170923
5.9000000000000	-7.2523091334714
5.9100000000000	-7.1117253490477
5.9200000000000	-6.9776644350013
5.9300000000000	-6.8497656046495
5.9400000000000	-6.7276936349176
5.9500000000000	-6.6111367186202
5.9600000000000	-6.4998045237842
5.9700000000000	-6.3934264384743
5.9800000000000	-6.2917499817407
5.9900000000000	-6.1945393633280
6.0000000000000	-6.1015741766460
6.0100000000000	-6.0126482111911
6.0200000000000	-5.9275683721285
6.0300000000000	-5.8461536961050
6.0400000000000	-5.7682344535707
6.0500000000000	-5.6936513289655
6.0600000000000	-5.6222546710750
6.0700000000000	-5.5539038067029
6.0800000000000	-5.4884664115520
6.0900000000000	-5.4258179328623
6.1000000000000	-5.3658410589363
6.1100000000000	-5.3084252311955
6.1200000000000	-5.2534661948672
6.1300000000000	-5.2008655848041
6.1400000000000	-5.1505305432937
6.1500000000000	-5.1023733670352
6.1600000000000	-5.0563111807403
6.1700000000000	-5.0122656350659
6.1800000000000	-4.9701626268091
6.1900000000000	-4.9299320394951
6.2000000000000	-4.8915075026650
6.2100000000000	-4.8548261683298
6.2200000000000	-4.8198285031997
6.2300000000000	-4.7864580954239
6.2400000000000	-4.7546614746926
6.2500000000000	-4.7243879446540
6.2600000000000	-4.6955894266927
6.2700000000000	-4.6682203141992
6.2800000000000	-4.6422373365353
6.2900000000000	-4.6175994319689
6.3000000000000	-4.5942676289113
6.3100000000000	-4.5722049348499
6.3200000000000	-4.5513762324147
6.3300000000000	-4.5317481820663
6.3400000000000	-4.5132891309338
6.3500000000000	-4.4959690273696
6.3600000000000	-4.4797593408196
6.3700000000000	-4.4646329866446
6.3800000000000	-4.4505642555501
6.3900000000000	-4.4375287473151
6.4000000000000	-4.4255033085287
6.4100000000000	-4.4144659740686
6.4200000000000	-4.4043959120748
6.4300000000000	-4.3952733721902
6.4400000000000	-4.3870796368556
6.4500000000000	-4.3797969754646
6.4600000000000	-4.3734086011956
6.4700000000000	-4.3678986303528
6.4800000000000	-4.3632520440599
6.4900000000000	-4.3594546521599
6.5000000000000	-4.3564930591879
6.5100000000000	-4.3543546322890
6.5200000000000	-4.3530274709660
6.5300000000000	-4.3525003785472
6.5400000000000	-4.3527628352732
6.5500000000000	-4.3538049729076
6.5600000000000	-4.3556175507849
6.5700000000000	-4.3581919332112
6.5800000000000	-4.3615200681430
6.5900000000000	-4.3655944670721
6.6000000000000	-4.3704081860478
6.6100000000000	-4.3759548077775
6.6200000000000	-4.3822284247435
6.6300000000000	-4.3892236232844
6.6400000000000	-4.3969354685882
6.6500000000000	-4.4053594905500
6.6600000000000	-4.4144916704503
6.6700000000000	-4.4243284284107
6.6800000000000	-4.4348666115892
6.6900000000000	-4.4461034830775
6.7000000000000	-4.4580367114674
6.7100000000000	-4.4706643610519
6.7200000000000	-4.4839848826342
6.7300000000000	-4.4979971049136
6.7400000000000	-4.5127002264236
6.7500000000000	-4.5280938079979
6.7600000000000	-4.5441777657395
6.7700000000000	-4.5609523644746
6.7800000000000	-4.5784182116673
6.7900000000000	-4.5965762517807
6.8000000000000	-4.6154277610633
6.8100000000000	-4.6349743427467
6.8200000000000	-4.6552179226397
6.8300000000000	-4.6761607451024
6.8400000000000	-4.6978053693911
6.8500000000000	-4.7201546663583
6.8600000000000	-4.7432118154998
6.8700000000000	-4.7669803023372
6.8800000000000	-4.7914639161265
6.8900000000000	-4.8166667478859
6.9000000000000	-4.8425931887330
6.9100000000000	-4.8692479285270
6.9200000000000	-4.8966359548080
6.9300000000000	-4.9247625520290
6.9400000000000	-4.9536333010759
6.9500000000000	-4.9832540790713
6.9600000000000	-5.0136310594600
6.9700000000000	-5.0447707123724
6.9800000000000	-5.0766798052646
6.9900000000000	-5.1093654038344
7.0000000000000	-5.1428348732126
7.0100000000000	-5.1770958794296
7.0200000000000	-5.2121563911587
7.0300000000000	-5.2480246817373
7.0400000000000	-5.2847093314693
7.0500000000000	-5.3222192302103
7.0600000000000	-5.3605635802408
7.0700000000000	-5.3997518994318
7.0800000000000	-5.4397940247068
7.0900000000000	-5.4807001158088
7.1000000000000	-5.5224806593769
7.1100000000000	-5.5651464733419
7.1200000000000	-5.6087087116487
7.1300000000000	-5.6531788693160
7.1400000000000	-5.6985687878435
7.1500000000000	-5.7448906609782
7.1600000000000	-5.7921570408522
7.1700000000000	-5.8403808445073
7.1800000000000	-5.8895753608194
7.1900000000000	-5.9397542578404
7.2000000000000	-5.9909315905746
7.2100000000000	-6.0431218092088
7.2200000000000	-6.0963397678164
7.2300000000000	-6.1506007335571
7.2400000000000	-6.2059203963967
7.2500000000000	-6.2623148793713
7.2600000000000	-6.3198007494245
7.2700000000000	-6.3783950288449
7.2800000000000	-6.4381152073375
7.2900000000000	-6.4989792547603
7.3000000000000	-6.5610056345637
7.3100000000000	-6.6242133179711
7.3200000000000	-6.6886217989404
7.3300000000000	-6.7542511099529
7.3400000000000	-6.8211218386750
7.3500000000000	-6.8892551455446
7.3600000000000	-6.9586727823359
7.3700000000000	-7.0293971117608
7.3800000000000	-7.1014511281694
7.3900000000000	-7.1748584794165
7.4000000000000	-7.2496434899645
7.4100000000000	-7.3258311853013
7.4200000000000	-7.4034473177534
7.4300000000000	-7.4825183937842
7.4400000000000	-7.5630717028698
7.4500000000000	-7.6451353480570
7.4600000000000	-7.7287382783086
7.4700000000000	-7.8139103227569
7.4800000000000	-7.9006822269878
7.4900000000000	-7.9890856914932
7.5000000000000	-8.0791534124352
7.5100000000000	-8.1709191248795
7.5200000000000	-8.2644176486658
7.5300000000000	-8.3596849370963
7.5400000000000	-8.4567581286371
7.5500000000000	-8.5556756018434
7.5600000000000	-8.6564770337345
7.5700000000000	-8.7592034618626
7.5800000000000	-8.8638973503404
7.5900000000000	-8.9706026601103
7.6000000000000	-9.0793649237638
7.6100000000000	-9.1902313252423
7.6200000000000	-9.3032507847782
7.6300000000000	-9.4184740494635
7.6400000000000	-9.5359537898654
